GREEN,RED,IR
1754051,1227035,1153890
1754543,1226652,1156175
1754891,1226565,1156381
1755305,1225456,1156381
1755248,1224708,1157306
1755945,1224528,1157886
1757056,1223468,1158767
1758773,1221961,1159779
1761250,1219769,1160462
1764179,1216506,1162035
1767294,1212631,1163711
1769348,1209879,1165209
1770517,1206284,1166719
1771012,1204373,1167692
1770801,1202749,1169332
1770801,1201133,1170731
1771102,1199637,1171171
1771818,1199193,1172138
1772239,1196836,1172669
1771581,1196050,1173183
1771335,1195418,1173518
1774698,1190861,1173981
1776218,1187337,1174676
1777104,1182406,1176636
1776433,1172749,1179624
1774487,1172614,1187691
1774725,1174658,1191381
1776617,1172316,1195281
1776342,1167836,1197379
1775960,1168257,1199495
1775271,1169407,1202585
1774398,1171430,1203869
1773917,1174451,1205119
1772863,1177572,1206370
1772883,1180359,1207438
1772676,1182761,1207734
1772974,1185507,1208840
1773238,1187267,1210423
1775096,1187592,1210560
1776554,1184208,1210986
1777149,1181502,1211165
1775432,1185402,1212199
1775844,1190191,1212803
1776878,1189507,1213339
1777595,1187542,1212567
1777948,1184736,1211270
1778579,1177079,1211567
1779585,1171637,1211053
1777183,1156823,1210418
1773698,1154267,1207993
1771661,1157459,1206717
1773252,1159379,1205120
1776067,1151696,1203791
1778194,1141023,1202721
1779789,1136875,1201853
1779820,1133731,1201174
1779603,1130954,1199662
1779050,1129548,1198820
1776834,1130750,1198351
1777144,1134601,1197776
1779456,1127392,1197374
1781151,1117350,1197653
1779948,1114902,1198006
1778476,1118304,1196545
1778065,1120244,1197119
1777902,1120848,1197669
1777921,1122524,1197242
1777588,1124742,1196760
1777381,1126221,1197166
1776786,1128030,1198048
1776562,1130251,1199273
1776100,1133536,1199531
1775015,1143782,1199742
1776687,1149562,1200298
1779686,1146655,1200333
1781060,1140053,1200411
1780547,1137127,1202196
1780838,1138053,1202341
1780738,1137671,1202514
1780622,1138194,1203066
1780734,1137305,1202960
1781766,1135961,1204262
1782353,1134497,1204135
1782959,1131990,1204378
1783545,1129858,1204228
1783165,1124432,1204001
1782076,1123857,1203187
1781446,1120609,1202228
1780033,1114876,1201719
1777916,1110941,1200679
1776595,1112186,1201044
1775830,1114032,1200118
1775037,1117638,1200454
1774562,1121442,1201030
1774466,1124829,1200426
1774787,1126612,1200509
1775379,1128246,1200816
1775817,1129304,1202073
1776655,1129837,1203176
1777711,1129074,1204318
1778592,1127156,1204684
1779781,1124352,1205536
1780146,1121763,1205427
1780154,1119952,1203958
1779824,1119783,1203167
1779415,1120197,1201926
1778560,1121871,1200683
1778080,1124050,1199113
1777412,1127262,1196362
1776739,1130624,1195185
1776739,1134130,1192403
1776762,1135847,1190436
1777406,1136625,1189270
1777425,1136766,1188670
1778649,1136256,1188715
1778599,1135318,1188354
1778347,1135028,1188351
1777847,1135223,1188269
1777289,1136261,1188379
1776875,1138041,1187768
1776542,1141440,1188670
1776457,1144353,1189711
1776937,1146827,1189768
1777059,1148326,1191503
1777500,1149039,1192647
1778109,1149095,1193184
1779071,1149232,1195042
1779714,1148301,1197761
1780747,1147070,1198879
1781643,1144776,1200172
1782619,1141780,1201810
1783045,1138761,1202454
1782493,1136874,1203395
1781777,1135801,1202813
1781777,1136078,1202490
1781388,1136608,1202061
1782050,1136439,1201634
1782403,1134923,1198657
1782985,1133391,1196934
1783069,1132179,1196197
1783686,1131247,1194449
1783646,1130698,1194375
1784087,1129660,1193411
1783854,1128924,1193091
1784211,1128163,1192713
1783893,1127448,1192532
1783607,1127728,1192039
1783321,1128242,1191188
1783508,1129490,1190468
1783704,1130676,1191135
1783281,1131941,1190896
1783203,1133193,1190759
1783112,1135328,1191589
1783384,1137234,1192578
1784959,1137639,1193388
1785413,1131099,1193421
1784982,1129620,1192936
1784071,1128879,1192580
1782350,1130235,1191274
1781506,1130226,1192237
1780868,1130883,1192201
1780523,1131564,1190905
1780596,1131894,1191259
1780403,1131373,1190699
1780328,1131519,1190623
1780472,1129437,1191036
1781035,1127807,1192137
1780696,1126407,1193236
1781326,1125571,1194968
1781500,1125059,1195030
1781051,1126462,1196110
1780652,1127117,1196849
1780319,1128585,1197344
1778144,1131313,1197245
1778390,1135004,1197021
1778390,1139255,1197831
1778130,1144665,1197889
1778197,1147933,1197492
1778716,1151068,1197562
1779430,1152045,1199116
1778949,1151017,1199604
1783609,1147188,1199643
1783678,1144527,1199333
1783400,1142735,1197421
1782164,1142310,1195575
1782392,1143048,1194002
1781952,1144421,1190190
1781058,1147371,1188621
1780822,1149999,1184886
1779962,1153778,1183045
1779295,1158097,1181064
1781692,1164247,1179797
1783279,1158001,1180441
1783132,1156091,1181773
1783258,1157196,1182657
1783147,1158540,1183267
1783267,1159840,1184526
1782909,1163722,1184727
1782984,1165766,1187040
1783754,1167463,1188017
1784783,1168204,1189092
1784529,1172567,1190818
1785585,1174762,1192816
1785446,1178495,1193892
1783186,1187913,1193152
1780485,1199145,1194150
1780170,1202386,1193980
1780526,1204860,1193683
1781625,1206054,1193729
1781737,1205827,1193747
1783179,1204499,1193436
1784209,1202795,1192227
1785909,1196957,1192041
1784614,1197003,1191577
1780990,1199647,1191374
1778548,1200987,1190668
1778421,1196326,1189445
1779797,1189778,1188102
1781270,1186709,1187711
1782374,1184107,1186531
1782976,1181093,1184676
1783963,1176521,1183630
1783673,1175406,1182742
1782546,1177067,1180753
1783946,1180609,1179544
1786888,1174428,1178269
1789498,1162559,1175197
1789363,1152933,1174228
1789224,1151562,1172941
1789011,1148938,1173041
1788874,1145447,1172307
1789301,1143370,1172966
1789284,1138530,1173260
1789554,1135701,1174980
1787729,1132288,1174647
1787089,1137801,1175890
1789037,1136649,1175533
1789664,1131632,1176392
1789765,1129821,1176728
1789460,1130107,1177501
1788955,1132055,1177306
1789297,1133416,1176964
1788752,1135546,1176694
1789127,1136893,1176653
1789836,1137613,1175480
1790695,1136172,1175143
1791301,1134701,1175285
1791235,1133056,1174418
1791004,1131953,1173288
1791085,1131455,1173621
1791135,1131996,1173768
1791360,1131646,1174255
1791667,1131548,1174624
1791576,1131459,1176034
1790739,1132463,1177526
1790219,1134260,1179871
1790056,1137382,1182117
1790001,1139989,1183575
1789974,1142321,1184687
1791661,1144099,1185830
1791884,1143039,1185622
1791351,1140998,1184420
1790972,1139155,1182173
1790306,1137560,1180828
1789173,1136492,1180085
1788719,1135550,1178848
1788219,1135302,1176943
1787919,1134324,1176229
1787346,1133979,1174190
1786929,1133570,1172691
1786062,1134570,1171160
1785668,1136091,1170642
1785021,1138616,1171335
1784706,1141676,1172801
1784513,1145839,1174703
1784190,1149700,1175126
1784088,1153361,1176849
1784942,1156760,1177931
1787236,1156861,1177783
1788850,1152544,1178677
1789002,1152442,1179766
1788988,1152162,1180137
1788919,1152338,1179721
1788821,1153050,1180076
1787773,1154541,1179780
1787748,1156695,1180243
1787871,1159533,1181596
1788466,1161186,1181749
1789042,1160592,1182449
1789808,1158455,1183275
1789874,1155465,1184366
1789978,1152389,1185900
1789480,1146866,1187482
1791011,1143388,1187536
1789929,1138457,1188137
1789770,1139999,1188139
1790153,1139861,1189894
1790786,1138825,1190795
1791478,1137343,1190392
1791748,1135052,1191710
1792177,1132594,1193062
1792422,1130530,1194222
1792598,1128815,1195062
1793070,1127580,1196446
1793563,1125329,1198256
1793736,1123368,1199913
1794036,1121897,1201764
1794576,1120773,1202311
1795456,1119271,1203916
1796204,1117269,1204266
1796572,1115727,1202835
1797173,1114183,1202285
1796842,1113092,1202375
1797908,1112243,1201764
1816631,1099656,1199116
1825263,1093764,1198534
1832694,1086389,1197559
1839611,1079980,1196435
1852516,1074528,1195554
1884576,1067145,1194500
1931114,1058210,1193895
1958901,1051005,1193308
1968511,1044255,1193468
1969475,1039994,1193245
1966137,1037334,1193881
1960337,1035572,1193040
1952202,1034787,1193872
1946888,1036080,1194006
1944219,1034632,1193440
1944185,1033742,1193119
1944920,1032530,1193073
1949982,1030819,1193050
1955108,1029149,1192641
1959310,1028721,1192109
1960264,1025737,1191939
1959987,1024711,1191127
1959987,1023728,1189776
1957778,1023376,1188892
1959379,1023045,1187033
1955795,1024808,1184802
1948418,1024205,1182412
1934192,1025754,1180169
1911892,1029083,1178611
1894123,1034298,1176695
1882548,1040591,1175370
1875360,1046814,1174246
1870317,1049463,1173009
1868525,1052440,1173599
1865671,1053696,1173629
1864643,1054272,1172614
1862620,1054731,1171372
1861380,1056202,1170216
1859961,1056257,1170615
1858495,1056800,1171827
1854142,1057050,1172080
1851902,1058458,1172349
1848398,1060373,1173321
1843683,1068045,1173464
1849316,1059908,1174388
1850036,1057560,1175498
1849259,1056005,1176502
1846853,1056606,1177310
1843039,1061524,1179020
1833976,1065906,1179104
1826988,1072085,1179925
1820057,1080231,1179351
1813717,1089374,1178734
1812888,1107308,1177582
1818017,1103788,1177029
1823330,1097123,1176986
1830895,1087798,1177211
1835298,1077521,1177538
1834326,1075825,1177537
1832045,1075702,1176466
1828811,1078581,1175891
1830176,1083912,1175193
1830782,1083036,1174340
1832410,1081495,1173712
1834205,1078513,1174188
1835059,1075873,1173747
1834628,1072755,1174655
1834046,1071585,1176822
1834323,1069872,1177421
1832425,1064004,1178417
1832811,1060500,1179638
1830852,1059538,1181557
1830024,1060191,1181912
1828605,1061225,1182708
1826325,1063221,1183089
1824793,1066664,1183540
1823540,1069738,1185147
1822567,1072534,1186567
1820649,1074408,1187681
1819015,1077828,1189233
1817675,1080999,1191309
1816605,1085050,1192725
1815614,1087893,1195125
1815351,1090869,1197037
1815567,1092495,1200182
1815989,1093769,1200770
1816356,1094295,1202899
1817181,1094951,1205271
1817912,1094201,1206955
1819086,1093733,1209187
1820703,1091427,1209663
1822136,1088867,1209454
1822576,1085879,1209918
1821733,1084085,1209868
1821733,1082828,1208571
1820572,1083863,1207868
1818637,1085761,1207002
1816797,1089282,1204921
1814204,1093151,1203095
1811406,1098359,1200292
1808990,1103138,1198379
1807497,1109019,1196425
1807548,1110863,1195587
1808696,1111468,1193801
1810154,1111058,1191889
1811665,1107800,1191399
1812406,1104722,1191240
1814005,1099137,1190195
1813676,1097214,1189672
1817147,1094856,1189252
1820482,1088685,1189792
1820651,1087459,1188876
1819960,1087214,1188235
1819285,1087484,1186981
1819404,1088439,1186140
1820050,1088468,1185538
1821646,1087489,1185834
1823872,1081805,1186380
1828679,1078313,1185797
1830883,1074883,1185217
1832162,1071208,1184787
1831511,1068779,1183426
1829858,1067980,1182138
1828345,1069309,1181003
1826205,1070643,1180287
1822839,1072981,1178423
1819020,1075962,1175496
1814648,1080556,1172881
1804889,1096584,1170869
1803711,1106346,1168437
1805628,1104921,1165137
1806460,1101667,1162568
1807357,1096038,1159845
1806668,1094686,1158402
1805712,1095058,1156166
1804863,1100172,1154275
1801730,1104223,1154176
1801180,1108797,1152913
1802206,1111178,1152583
1807041,1105133,1151914
1807750,1100967,1151338
1806393,1103242,1149971
1807069,1103269,1149568
1807286,1102369,1149096
1807477,1101606,1149539
1807430,1100918,1150826
1806474,1100876,1152478
1805131,1104819,1153931
1800025,1109152,1154681
1798913,1114323,1156055
1797725,1118297,1157717
1797574,1120711,1158801
1801246,1120591,1157953
1802997,1111597,1159271
1802638,1109634,1160466
1801340,1112062,1160892
1799791,1118567,1162339
1800213,1120514,1163589
1800324,1121691,1165194
1800815,1122608,1165645
1801861,1122558,1167044
1804369,1116012,1168028
1805779,1109619,1168818
1803069,1111186,1169120
1802728,1116895,1168868
1804725,1116393,1169527
1803561,1108823,1169895
1803996,1106944,1169834
1802934,1106967,1169597
1801367,1105864,1168545
1800071,1107945,1166611
1795916,1110803,1165169
1794669,1114925,1162417
1794081,1121016,1159908
1794168,1123408,1156783
1794557,1124852,1155443
1793778,1124822,1152795
1796211,1123635,1152019
1797613,1121679,1151059
1797998,1120930,1150317
1798333,1118758,1150673
1798277,1118051,1150452
1796957,1117636,1151214
1798583,1117485,1152266
1799373,1116221,1153547
1799780,1115220,1153948
1799780,1113404,1153743
1799787,1112325,1153524
1799804,1112830,1154801
1798220,1114121,1155579
1798213,1116247,1155926
1797875,1119458,1155438
1795241,1128087,1154326
1794497,1131829,1154906
1794774,1134579,1154327
1795696,1139175,1153990
1796712,1134925,1152183
1796004,1134934,1152032
1795143,1140936,1151360
1794725,1149491,1150183
1795024,1152883,1149599
1796719,1154161,1150790
1795782,1155298,1150175
1795513,1156271,1149143
1796499,1156074,1148830
1797089,1155723,1148386
1799413,1154472,1149033
1798008,1154308,1149538
1796943,1156999,1150076
1796252,1166612,1150956
1796337,1173606,1150884
1797422,1175504,1150918
1798680,1171432,1150960
1799212,1170200,1151042
1799414,1168452,1151625
1799531,1167721,1150867
1798881,1166524,1150316
1798004,1165917,1150992
1797873,1162356,1151867
1796736,1160642,1152859
1795993,1158925,1154079
1795155,1157832,1155649
1794396,1156664,1157823
1792819,1158756,1163165
1792729,1162513,1166189
1793277,1164115,1167567
1793074,1162277,1168761
1793216,1163028,1168978
1793504,1163143,1167759
1793563,1164758,1168749
1793325,1168313,1168077
1792107,1170398,1167391
1791443,1173596,1168243
1790522,1176935,1169125
1789584,1180633,1171718
1789224,1183324,1174751
1789600,1185072,1178143
1790776,1184286,1180217
1793679,1176826,1181112
1795285,1164462,1181444
1793445,1159752,1181613
1790357,1165308,1180279
1789640,1169475,1179206
1788865,1173147,1178302
1787154,1182114,1176372
1785823,1186267,1172517
1786789,1187590,1171159
1788745,1186120,1170173
1791500,1179368,1167896
1791347,1176770,1167440
1791700,1177137,1167205
1793517,1173764,1167668
1795029,1163523,1167550
1795544,1160493,1167455
1795809,1157686,1167784
1795804,1155412,1169287
1795331,1152743,1171567
1795444,1150875,1173158
1795559,1149032,1176084
1795366,1147598,1178704
1794856,1146964,1183449
1792795,1148474,1187398
1792157,1146470,1190843
1791638,1137592,1193967
1789860,1130626,1197562
1787256,1129879,1200084
1786671,1131734,1201799
1785806,1134741,1202296
1784800,1139134,1202983
1784385,1143351,1202224
1785066,1146839,1201669
1786052,1148008,1200883
1787557,1146219,1200531
1788824,1143482,1200698
1790595,1139727,1201254
1793076,1134590,1202039
1796362,1128630,1202365
1798705,1122892,1203173
1800477,1117475,1202896
1800845,1113505,1202593
1799741,1111242,1202223
1797993,1110379,1202301
1795643,1111169,1200261
1792734,1113988,1200515
1789869,1118195,1200073
1786852,1123347,1199617
1786852,1129490,1198626
1785218,1134997,1196886
1784442,1139670,1195910
1784505,1142444,1196143
1784636,1144365,1196995
1785033,1144830,1196516
1788938,1139342,1197787
1789661,1136042,1197898
1789810,1133349,1197161
1789740,1131690,1197176
1788840,1131145,1196732
1787769,1131977,1196463
1786785,1134539,1195677
1785984,1137995,1195411
1784878,1142049,1195155
1784731,1147534,1195740
1784578,1152825,1196162
1785033,1156003,1196733
1785662,1157453,1197851
1786210,1158285,1198700
1786300,1158998,1199895
1787036,1159348,1199626
1786808,1159318,1199628
1786808,1159192,1199388
1786829,1159690,1198555
1787061,1160052,1197634
1787940,1158812,1196790
1789009,1155463,1196392
1790759,1151489,1197407
1797722,1140887,1196419
1801336,1134503,1196101
1805902,1127699,1195810
1811692,1120705,1195854
1814431,1114468,1195953
1814646,1109972,1194599
1814362,1107214,1193156
1814274,1105865,1190787
1814118,1104447,1188002
1813902,1103029,1185234
1812790,1101892,1181751
1811823,1100801,1179481
1810672,1100200,1177731
1806593,1098691,1175720
1802134,1098751,1175283
1802293,1097523,1174525
1801587,1095829,1174419
1801375,1094676,1175156
1798106,1097524,1176385
1795261,1098501,1177890
1792250,1101818,1179445
1787386,1106184,1178777
1785602,1111089,1178565
1783291,1116505,1178005
1781183,1124269,1178229
1780070,1129369,1177607
1779658,1136113,1176623
1778592,1141899,1175885
1780971,1144189,1174679
1782102,1144137,1173191
1782790,1144561,1172215
1783843,1142146,1170579
1784152,1141111,1170121
1782391,1140570,1169543
1783105,1140492,1168993
1783105,1141285,1168168
1783381,1143315,1167107
1783423,1144223,1165690
1783107,1145898,1164199
1782742,1147457,1163407
1781168,1148310,1162819
1784293,1147406,1162350
1785615,1144319,1162130
1787785,1140444,1161497
1789410,1134218,1161680
1793026,1126911,1160975
1795478,1119936,1160350
1797852,1114498,1159919
1800881,1101666,1157872
1800788,1098247,1156776
1796443,1101947,1155428
1787110,1112865,1155193
1784241,1119349,1155028
1782619,1127008,1155721
1782077,1134564,1156950
1781474,1146745,1159362
1782052,1150891,1160123
1785351,1153797,1161936
1784314,1155520,1163154
1783303,1162264,1165249
1780483,1174503,1167624
1779876,1180637,1169984
1779088,1175557,1171733
1778950,1172556,1173961
1778526,1170482,1174247
1777964,1168565,1174371
1777739,1165032,1172594
1777566,1163146,1171784
1776857,1160893,1171488
1775125,1166294,1171689
1773213,1174614,1171296
1771392,1185649,1172561
1772300,1190791,1173736
1772289,1192517,1175403
1772624,1193429,1175731
1772186,1194650,1178596
1772142,1195356,1179160
1771819,1197331,1177478
1769849,1199078,1176904
1770444,1200808,1175344
1772109,1195025,1173459
1771305,1193473,1171240
1770226,1197866,1169951
1769134,1204272,1169056
1768324,1207254,1168655
1768017,1208964,1167935
1767480,1212626,1168539
1767659,1214136,1169091
1768132,1214100,1168960
1769232,1213251,1169853
1770150,1211611,1170056
1769664,1213036,1171884
1768879,1217759,1173166
1766605,1223284,1175230
1764513,1229088,1176619
1764559,1230510,1178543
1763857,1231532,1179394
1763645,1231923,1180634
1763071,1232460,1180005
1762077,1232395,1178683
1760801,1232021,1177149
1759676,1231031,1176452
1758632,1230483,1174982
1757655,1229819,1174211
1756422,1229478,1173117
1754860,1228975,1171277
1752801,1229475,1169835
1751626,1230566,1168803
1750171,1232486,1165912
1748777,1234634,1165628
1745878,1241636,1165071
1746421,1244748,1165090
1750069,1241025,1166712
1751459,1239381,1167714
1752272,1237631,1168238
1752590,1236597,1168875
1753383,1236169,1169655
1754832,1233455,1170770
1759072,1230237,1170840
1761340,1227152,1170202
1762925,1223833,1169911
1764199,1220941,1169153
1764827,1218212,1167879
1765590,1216138,1166619
1766022,1213903,1165365
1766607,1212209,1164418
1766914,1210744,1164247
1766923,1209514,1164404
1767238,1208606,1165882
1767430,1207339,1165911
1767922,1205879,1166433
1768070,1204694,1166484
1768133,1203672,1165263
1768133,1202582,1164313
1768543,1201715,1162712
1768996,1201394,1162010
1769139,1200788,1161529
1769162,1200444,1161129
1769500,1200202,1161039
1769350,1200094,1161534
1769717,1200264,1162310
1770419,1200497,1164150
1771595,1199321,1166670
1775302,1194125,1168937
1775889,1191779,1171213
1774136,1193971,1173957
1771739,1201525,1176701
1772418,1204902,1178716
1773167,1205545,1179585
1773156,1205228,1181642
1773050,1205352,1182534
1773092,1206173,1183426
1773199,1206787,1185630
1772406,1206721,1186236
1769541,1206445,1186916
1765699,1206483,1186885
1761794,1210675,1185970
1761448,1213542,1185728
1764356,1211315,1185493
1765104,1209784,1183800
1766548,1207893,1183547
1767048,1206512,1183382
1767062,1206276,1183810
1766947,1205461,1183981
1766494,1205496,1185614
1765741,1205853,1186150
1766106,1206458,1186130
1766172,1207405,1184189
1767084,1209667,1182957
1769828,1206273,1180842
1776244,1196065,1178650
1777190,1185148,1175408
1776558,1179534,1175062
1776189,1178717,1173758
1776353,1178380,1174478
1776033,1177616,1174292
1775991,1177502,1174952
1775612,1178005,1176226
1775910,1178691,1176164
1775385,1179179,1176150
1775853,1182039,1176315
1775533,1183853,1175385
1773858,1189506,1173648
1769982,1198726,1172165
1769087,1207994,1171018
1769505,1209002,1169641
1769901,1210057,1168465
1770235,1210680,1168529
1770759,1211006,1168149
1770515,1210937,1167745
1770944,1210963,1168230
1770665,1212264,1169140
1770001,1213083,1169470
1768140,1216920,1170288
1766058,1216274,1171434
1765135,1211569,1172934
1765892,1205622,1173572
1767207,1197468,1172757
1768484,1195180,1174374
1768437,1194122,1174191
1768385,1193509,1173866
1767880,1193784,1173669
1766060,1195129,1173652
1766560,1196040,1173314
1766643,1196689,1172236
1766755,1196466,1172092
1766905,1196564,1172344
1767404,1196291,1171710
1767542,1196383,1173091
1768725,1196003,1174333
1769359,1195622,1175517
1769437,1194275,1176222
1769746,1193596,1177126
1769972,1192776,1178542
1769812,1192344,1178067
1769477,1191898,1177636
1769477,1192003,1177599
1768382,1192449,1177691
1767386,1193952,1177065
1766505,1195592,1176232
1765511,1197931,1176096
1764237,1200077,1174989
1763169,1202930,1174407
1759659,1208562,1173632
1759200,1211485,1173121
1759376,1213998,1173336
1761416,1213479,1173121
1762000,1213468,1173433
1763225,1214356,1174061
1763171,1215021,1170136
1762773,1216816,1165236
1762912,1218429,1162837
1762713,1219262,1161468
1762052,1221308,1160089
1761729,1222891,1157334
1762426,1223777,1156048
1762860,1223611,1153501
1763388,1223459,1153501
1762843,1224689,1153050
1763211,1227005,1152401
1763823,1222744,1152046
1762558,1214326,1152518
1762189,1211817,1152692
1761457,1209340,1153231
1761301,1206644,1154058
1760592,1204992,1155034
1760075,1203552,1155668
1759548,1201982,1156323
1759251,1200660,1156606
1758999,1200547,1157712
1758768,1200602,1158169
1758373,1200997,1159859
1758257,1201273,1160559
1757887,1201916,1162056
1757797,1202710,1162459
1756465,1207576,1162962
1755811,1212396,1163156
1755221,1216747,1163249
1754573,1220348,1163743
1754544,1221389,1161739
1754274,1222182,1160930
1754023,1222743,1161083
1753665,1223062,1160427
1752793,1223629,1161555
1752268,1224143,1161661
1751447,1225026,1163253
1750839,1225913,1164625
1749809,1226924,1165498
1748844,1228405,1166935
1747919,1230006,1167440
1747902,1231356,1167217
1747821,1232473,1166755
1747589,1233451,1167166
1747483,1234018,1167592
1747447,1234969,1168326
1747184,1235828,1169229
1747296,1236574,1170591
1746873,1237207,1171326
1746873,1237489,1172182
1747428,1237623,1172544
1747604,1238227,1172459
1747623,1238358,1172917
1747733,1238382,1172737
1747912,1238552,1172616
1748470,1239178,1172275
1748900,1239387,1173033
1748824,1239634,1173389
1749388,1239737,1172705
1749472,1239808,1173600
1749514,1239717,1174210
1749511,1239914,1174162
1749943,1240578,1176470
1750222,1240194,1176690
1750518,1240223,1176789
1752031,1239357,1176749
1754219,1235685,1176667
1754136,1233785,1177105
1754016,1235158,1178001
1754182,1234837,1179015
1754267,1234219,1178273
1753512,1233997,1177540
1753694,1232436,1176403
1753535,1229882,1175936
1753773,1219459,1175389
1752971,1211356,1173279
1751780,1209165,1172615
1749941,1211320,1171957
1751604,1212095,1171854
1752561,1211859,1171861
1753201,1211375,1169874
1753721,1210501,1169536
1754422,1210321,1169197
1754588,1209748,1167802
1755264,1209094,1167574
1755857,1208742,1166454
1756704,1208125,1165427
1757136,1207514,1165232
1757728,1206476,1164940
1757978,1205879,1165278
1758560,1204443,1164722
1759160,1203486,1163408
1758662,1202320,1161842
1758671,1202024,1160734
1758720,1201606,1159244
1757620,1201926,1159187
1756789,1203404,1159507
1756878,1203152,1158914
1757051,1203305,1159528
1757707,1203923,1159802
1758079,1203576,1160625
1758281,1203126,1161542
1758562,1202818,1162707
1757499,1205080,1165078
1757706,1209846,1166839
1758718,1212124,1168420
1760505,1211566,1169622
1761092,1210479,1169554
1760328,1212062,1168974
1760494,1212856,1167417
1760544,1214225,1166194
1760369,1215052,1163979
1760515,1216396,1162379
1760338,1216939,1161706
1760700,1217005,1161083
1760763,1217641,1161780
1761052,1217463,1161870
1760754,1217982,1162677
1761013,1218169,1164714
1760897,1218882,1167750
1761347,1218411,1169677
1759841,1214256,1172543
1756615,1209540,1174472
1755857,1208847,1175570
1755293,1207854,1177288
1754661,1207912,1177798
1753831,1208112,1178712
1753476,1208079,1178935
1753666,1208668,1178934
1753326,1209401,1178461
1753242,1212048,1177326
1753248,1215191,1176926
1754125,1217809,1176710
1754597,1219662,1175783
1754122,1221799,1176534
1753608,1223154,1177198
1752970,1223969,1178146
1752067,1225403,1177975
1751452,1227639,1179387
1750528,1228545,1180146
1750208,1229251,1182780
1750251,1229282,1183194
1750225,1229478,1183764
1749985,1230308,1184283
1749464,1232405,1185275
1749373,1235888,1185400
1747611,1241093,1185796
1745998,1246287,1184878
1745869,1248112,1184218
1746075,1249171,1183600
1745927,1250332,1182512
1745817,1251518,1182443
1745290,1252587,1182370
1745756,1253976,1182411
1745755,1254453,1183383
1745807,1255322,1183853
1745764,1255786,1185788
1745545,1255959,1187465
1746085,1257421,1190202
1746558,1259306,1192238
1746397,1260016,1193953
1745585,1261217,1195489
1745672,1261500,1197071
1745005,1261490,1197914
1744623,1260742,1197333
1743493,1260342,1195086
1742257,1259189,1193338
1741064,1257827,1189607
1740107,1256588,1186495
1739152,1255480,1183313
1738481,1254268,1181549
1737303,1253403,1179477
1736572,1252737,1178675
1735729,1252712,1178063
1735508,1252697,1177904
1735293,1252985,1178236
1735104,1253565,1179570
1734701,1254247,1181142
1734236,1255197,1182818
1733799,1256508,1184209
1733779,1257603,1184573
1732987,1258965,1185479
1732785,1260321,1186393
1732785,1261314,1186568
1732412,1262088,1187688
1732601,1263109,1188858
1732611,1263888,1187794
1732966,1264595,1187036
1732856,1265068,1186349
1732968,1266877,1185998
1732802,1267936,1185686
1733184,1268413,1184263
1733082,1268836,1184554
1733023,1268880,1185217
1732905,1268644,1185256
1732725,1268704,1185564
1732653,1268350,1185471
1732831,1268053,1185000
1731970,1267963,1186173
1731842,1268672,1187085
1731733,1269580,1186620
1731800,1270298,1186679
1731716,1270599,1187019
1731955,1270985,1186357
1731906,1271350,1186507
1731785,1273006,1186358
1731898,1272781,1187735
1732149,1273245,1189028
1732194,1273570,1190444
1732868,1273894,1191987
1732893,1274368,1193212
1732975,1275418,1195606
1732767,1275207,1197117
1733132,1276024,1198864
1732372,1276625,1198999
1733430,1277290,1200076
1733685,1277755,1200443
1733809,1278861,1200870
1734406,1278452,1200905
1734644,1278743,1202149
1733932,1278659,1202625
1734612,1279102,1201426
1734664,1279000,1202319
1734664,1279817,1200765
1734891,1279155,1199505
1735190,1279364,1197419
1735520,1279350,1195536
1734624,1279202,1193465
1735388,1279176,1192456
1736132,1279667,1191323
1736537,1279916,1190502
1735801,1279899,1191316
1736313,1279324,1189949
1734529,1274877,1190035
1733080,1269986,1190072
1730205,1265515,1190110
1729684,1263298,1188754
1729761,1263089,1187750
1729854,1263190,1186591
1729949,1263361,1185130
1729907,1264143,1183686
1729648,1264574,1182375
1729894,1265271,1178663
1730093,1265433,1176568
1730306,1265812,1174294
1731100,1266324,1172307
1730892,1267163,1169318
1730932,1267447,1165747
1730851,1268633,1162689
1731186,1269205,1160332
1731423,1270450,1157524
1731734,1270812,1155527
1732317,1272876,1151406
1732452,1272118,1149940
1731663,1270665,1150086
1732070,1270225,1150303
1732215,1270191,1149632
1731751,1269671,1150748
1731515,1269809,1151287
1730921,1270134,1152038
1731104,1270208,1151947
1731236,1270919,1151451
1731086,1271249,1150720
1731289,1272573,1151234
1731835,1273366,1150862
1732924,1274664,1151237
1733424,1275456,1151220
1733684,1276573,1152461
1734114,1276650,1153522
1734468,1277113,1153654
1734612,1277045,1156098
1734961,1277089,1158281
1734724,1277259,1159149
1735076,1277255,1159865
1735309,1277931,1158891
1735209,1277901,1157788
1736141,1278953,1156633
1736158,1279130,1155654
1734801,1277264,1154917
1732389,1272029,1154066
1729835,1267035,1153273
1729752,1265399,1151590
1729195,1264664,1149566
1728897,1263798,1148037
1728877,1263229,1146899
1728367,1263279,1146864
1728620,1264529,1146804
1728739,1266666,1146011
1729091,1269145,1146472
1729846,1271508,1145997
1730632,1273161,1146429
1730686,1273704,1145862
1731039,1273352,1145435
1730760,1273302,1144784
1730628,1272736,1145856
1730481,1272474,1146030
1730619,1271708,1148076
1729573,1271416,1150260
1729266,1271691,1152452
1728987,1272687,1155184
1729358,1274179,1157401
1729311,1276079,1160388
1729868,1277643,1162993
1730065,1278584,1165926
1730340,1278801,1167410
1730431,1279286,1169152
1730490,1280007,1170191
1730335,1280446,1170813
1730093,1280785,1170843
1730544,1281586,1170134
1730758,1282140,1169444
1731009,1283751,1169062
1730997,1285430,1169236
1731798,1286514,1169216
1731227,1286662,1169374
1729601,1282556,1170608
1728478,1280898,1172138
1727663,1278743,1173588
1726535,1274798,1176097
1724563,1273456,1175675
1724532,1271007,1174286
1723362,1270229,1172497
1723061,1269365,1169342
1723350,1269940,1166216
1724014,1271453,1163274
1724322,1273216,1159356
1725425,1274120,1156457
1725843,1274449,1153886
1725994,1274619,1152339
1726243,1274771,1152395
1726343,1274952,1152753
1726407,1274944,1154503
1726025,1274744,1156064
1725943,1274508,1158583
1726087,1273905,1161910
1725924,1273744,1164222
1725703,1273106,1165748
1725578,1272435,1166923
1725221,1272104,1167365
1725115,1271736,1167874
1725135,1271744,1167976
1725304,1271855,1166354
1725176,1271902,1167317
1725160,1272355,1168943
1724694,1272593,1169653
1724910,1273343,1171104
1725059,1273872,1172834
1724710,1274595,1172999
1724710,1274976,1172496
1724662,1275655,1173261
1724854,1276036,1172852
1725023,1277635,1173401
1725248,1277661,1174836
1725480,1278154,1175307
1725359,1278787,1174036
1725851,1280153,1173945
1726005,1281908,1171256
1726146,1281974,1169952
1726147,1282722,1168504
1726111,1282812,1165951
1726441,1283145,1164744
1726618,1283735,1164174
1726955,1285011,1162692
1727436,1284739,1160223
1727549,1284707,1159858
1726974,1284628,1157566
1727749,1285024,1157137
1728131,1285212,1157085
1728443,1286472,1156363
1728248,1286310,1155563
1727738,1286275,1155665
1727738,1285728,1155163
1727296,1285130,1155637
1727805,1284101,1156372
1727394,1283060,1156582
1726209,1280417,1157374
1725133,1278347,1157903
1723551,1274006,1157337
1722580,1272012,1157577
1721962,1271447,1158021
1721570,1269920,1158307
1721048,1268987,1157547
1719899,1267747,1158304
1720335,1267611,1159243
1720687,1267267,1159744
1720777,1268014,1159172
1721560,1268655,1160588
1722303,1270620,1160496
1722690,1271614,1160834
1723237,1272319,1161845
1723271,1272611,1162616
1723081,1273216,1164650
1723568,1273029,1165729
1723403,1272626,1166770
1723429,1273162,1169207
1723200,1272314,1171618
1722972,1272015,1172620
1722358,1270344,1174054
1722686,1269671,1174847
1723326,1268674,1175570
1723038,1269486,1175187
1723293,1269834,1175037
1723390,1270200,1174033
1723747,1270652,1171652
1723611,1271733,1169112
1723688,1272350,1167163
1724280,1272432,1165729
1724463,1272889,1164454
1724761,1273055,1163568
1724847,1273810,1163015
1725359,1274535,1163721
1725590,1276423,1164020
1726593,1277838,1165187
1726642,1278751,1166164
1726653,1278178,1167435
1726567,1278075,1170471
1726109,1276371,1171874
1725404,1275073,1174192
1724512,1272879,1176256
1723556,1270761,1178414
1722769,1268402,1180064
1721938,1266545,1181427
1720950,1264680,1182778
1719218,1262055,1183921
1718587,1262329,1186325
1718530,1264909,1187845
1718690,1267386,1189038
1718778,1270329,1190026
1719105,1271806,1191525
1719237,1272834,1192601
1719017,1273844,1192454
1719279,1275213,1190757
1718965,1275878,1191175
1718775,1276497,1190436
1719236,1276926,1190024
1719276,1277015,1190178
1718802,1276900,1190643
1718798,1276662,1190585
1717810,1275967,1189757
1717624,1275882,1189632
1717198,1276810,1189231
1717081,1278487,1189157
1717035,1279340,1189799
1716832,1280297,1190343
1717154,1281080,1191544
1717051,1282965,1192091
1716852,1283814,1193315
1716938,1284531,1194069
1717286,1285315,1193449
1717353,1285493,1192678
1717440,1285574,1192466
1717430,1285945,1191904
1717089,1286274,1191235
1717893,1287646,1190234
1718093,1289613,1190595
1718046,1291706,1191708
1716892,1293465,1190774
1716854,1294191,1191669
1716278,1294405,1191018
1715248,1293608,1192007
1712630,1293137,1191536
1711928,1290841,1190357
1708335,1290011,1189299
1704427,1288229,1187814
1702836,1288453,1186570
1701708,1288914,1187307
1702329,1290169,1186937
1702282,1290955,1187572
1702965,1291593,1188083
1702998,1292007,1188198
1702989,1292667,1189225
1702910,1293056,1189830
1703105,1293166,1190181
1703078,1293359,1191306
1703589,1293686,1192563
1703554,1293778,1192750
1703419,1293725,1192040
1703573,1293588,1192278
1703391,1293067,1191611
1703051,1293149,1188809
1703134,1292784,1185693
1703172,1292777,1182508
1702735,1292556,1180626
1702721,1292190,1177534
1702167,1291948,1174526
1701996,1292086,1172739
1701745,1292303,1172649
1701315,1292721,1172007
1700918,1293051,1172615
1700918,1293362,1170788
1700880,1293939,1172401
1700898,1294793,1172089
1700820,1295271,1173302
1701131,1295787,1174293
1700795,1296659,1175268
1700613,1297595,1176423
1701108,1298767,1178236
1700721,1299553,1179313
1700734,1300540,1181015
1700565,1301004,1182153
1700381,1301641,1183102
1700429,1302590,1182138
1700723,1303550,1182043
1700568,1304314,1181650
1700186,1305738,1181652
1699792,1306019,1181473
1699941,1307011,1181936
1699762,1307991,1181655
1700032,1308969,1181562
1699491,1309811,1181857
1699145,1311663,1181956
1699145,1311466,1182383
1699042,1311700,1181592
1699208,1312020,1180158
1699090,1312566,1178832
1699066,1312539,1178997
1698881,1314667,1178140
1698519,1312705,1176831
1696987,1311928,1177296
1697118,1311133,1177206
1696626,1309471,1178100
1693584,1305398,1181403
1690958,1301254,1184323
1690504,1300281,1186701
1690995,1298552,1189758
1692265,1296957,1192515
1693476,1296181,1193425
1695176,1295215,1194693
1696718,1293539,1194573
1698241,1292344,1193387
1699737,1290126,1191238
1701455,1286435,1189104
1703147,1285379,1187840
1704028,1282085,1185773
1702971,1281176,1184670
1702714,1279759,1183734
1701340,1278922,1181811
1700482,1278825,1180150
1700751,1279538,1179315
1700653,1279595,1177897
1700465,1280168,1177464
1700158,1281276,1177670
1699695,1281451,1177017
1699812,1282250,1177506
1700037,1282787,1176668
1699636,1283877,1176212
1699086,1286052,1175118
1699249,1288154,1174233
1699721,1289264,1173256
1700004,1290803,1171962
1699269,1291757,1172015
1699339,1292972,1171056
1699317,1293213,1170438
1698664,1294449,1171897
1698293,1294817,1170774
1698290,1295762,1170370
1698166,1295872,1168812
1697903,1295472,1166496
1697590,1294549,1163978
1696603,1293299,1161200
1696027,1291064,1157977
1694980,1289832,1155443
1694218,1287929,1153991
1691624,1283967,1152237
1689823,1282265,1152126
1689604,1283014,1151728
1689116,1283589,1151629
1689355,1284187,1152259
1689683,1284334,1152715
1689626,1285018,1152962
1690064,1286287,1152925
1689415,1286773,1154120
1689794,1289195,1154472
1690237,1289402,1154382
1690258,1289021,1153937
1690030,1286975,1154169
1689764,1285953,1154306
1689372,1286195,1155781
1689269,1286010,1157020
1688816,1286230,1158363
1688544,1287078,1160016
1688557,1288008,1160890
1688425,1288335,1161510
1688653,1288768,1160883
1688641,1289534,1159358
1688526,1290542,1158734
1688517,1291036,1157129
1688122,1291649,1154615
1688404,1292565,1153262
1688394,1293395,1151780
1688681,1294525,1150424
1688325,1296899,1149304
1688013,1298925,1147218
1687971,1300220,1147173
1688064,1301230,1147152
1687801,1301612,1148050
1688107,1302274,1148272
1687623,1302749,1147821
1687181,1303729,1147498
1686203,1304125,1147674
1686408,1305755,1146797
1686186,1306199,1146634
1687207,1306520,1145321
1686076,1306263,1145126
1685502,1305561,1145219
1683790,1300882,1144552
1681987,1294584,1145993
1679802,1289812,1147465
1679075,1287417,1148644
1679028,1287372,1150701
1679364,1287053,1155279
1679675,1287189,1156549
1681135,1287416,1157963
1679835,1287306,1158584
1679911,1287711,1158907
1680269,1288121,1159173
1680191,1288616,1160081
1681143,1290513,1161027
1682245,1289740,1160553
1683409,1289006,1161037
1682533,1287168,1160438
1682372,1285757,1161003
1682652,1285071,1162281
1682540,1284505,1163392
1681656,1284253,1164949
1683136,1283404,1166740
1683096,1283567,1168810
1683295,1282986,1170246
1683296,1282499,1171453
1682766,1282162,1170561
1683765,1281823,1169628
1683852,1281933,1168195
1683752,1282347,1163326
1683709,1283336,1160307
1684264,1285179,1158266
1684634,1286367,1156152
1684811,1286927,1154455
1684759,1287109,1152869
1685227,1287314,1152265
1685390,1287598,1152208
1685364,1288163,1151838
1685331,1288556,1152225
1685332,1288504,1153284
1685470,1288853,1153343
1685607,1289063,1154333
1685729,1289634,1155449
1685719,1289441,1154958
1685536,1289656,1154998
1685766,1289811,1154990
1685770,1290420,1154468
1685636,1290201,1154354
1685928,1290893,1154553
1685722,1290587,1155199
1685351,1290468,1156986
1685166,1289494,1157982
1684524,1288635,1161438
1683776,1286819,1162591
1682222,1285460,1162446
1682222,1283268,1161817
1681155,1281750,1161643
1680143,1279852,1161752
1679188,1279486,1162041
1678033,1277324,1161428
1677333,1276531,1162459
1676043,1275814,1163316
1675807,1275708,1163844
1675637,1276190,1163914
1675568,1276357,1164735
1675592,1277131,1165498
1675254,1277040,1165571
1675061,1277872,1167493
1675438,1278297,1167700
1675362,1279099,1168777
1676087,1279440,1171007
1675909,1280599,1172991
1675917,1280930,1174167
1675570,1281880,1178958
1676014,1282595,1178958
1676144,1283905,1179670
1676223,1284428,1179434
1675690,1285751,1178631
1675956,1285905,1179071
1675387,1286246,1179231
1675377,1286022,1179708
1674941,1286656,1179764
1674454,1286543,1181171
1674161,1286584,1182371
1674120,1286584,1184166
1673771,1286827,1186082
1673733,1286670,1187372
1673660,1286814,1189490
1673521,1286599,1190196
1673248,1287086,1190234
1673401,1288329,1190653
1673626,1290890,1188930
1673010,1293321,1187206
1671453,1297328,1185547
1670910,1298801,1184052
1670606,1300646,1183717
1669993,1303544,1184330
1669182,1304869,1185130
1669406,1306746,1186101
1668991,1307691,1187265
1669563,1309015,1188315
1669647,1310432,1188171
1670221,1311738,1189039
1670014,1313045,1187878
1669733,1312026,1186969
1669623,1311831,1183974
1669646,1310002,1182477
1668480,1308328,1179910
1667811,1304730,1177535
1666233,1302727,1175439
1665608,1299400,1173089
1663640,1298712,1170337
1662833,1297310,1169026
1662332,1297212,1166816
1662948,1297770,1166189
1663193,1298687,1165644
1663820,1299225,1165241
1663691,1299702,1164759
1664323,1299791,1163739
1664574,1300020,1162847
1664691,1300033,1162196
1664069,1299634,1161592
1664303,1298826,1160917
1664269,1297902,1160800
1663609,1297336,1160528
1664334,1297239,1160763
1664263,1298057,1163659
1664834,1298314,1164439
1665132,1299016,1164329
1665356,1299014,1166678
1665525,1299492,1168060
1665500,1300135,1166751
1665521,1300309,1165973
1665658,1301033,1165973
1666110,1301588,1164273
1666284,1301486,1161875
1666442,1301742,1161268
1664612,1301934,1159904
1665953,1302342,1160875
1666758,1303716,1161574
1666787,1305592,1162725
1666250,1308018,1163945
1664813,1310141,1165255
1664808,1310860,1167255
1664518,1313277,1168675
1664006,1312009,1170634
1663815,1309449,1171908
1661739,1307917,1173595
1659384,1304377,1173757
1656841,1301955,1174527
1656232,1302064,1173768
1655561,1303360,1173323
1655776,1304703,1173828
1654881,1306447,1173315
1656038,1306797,1173693
1656470,1307691,1173668
1656016,1308169,1174850
1655856,1308427,1176099
1656191,1308679,1177718
1656511,1309064,1180055
1656516,1309303,1181260
1656382,1309447,1182142
1656061,1309215,1182628
1656753,1309004,1181946
1655928,1309207,1181450
1657468,1310307,1181402
1656480,1310739,1180508
1656341,1311071,1179675
1656088,1311877,1179114
1656032,1312346,1179033
1656278,1312831,1178524
1658222,1312928,1176128
1656716,1314321,1174008
1658593,1315528,1172800
1656302,1317319,1170238
1657438,1317950,1167127
1655578,1318906,1164135
1655457,1318915,1160925
1656048,1319731,1156968
1656153,1319446,1154881
1656098,1319671,1153290
1656237,1319181,1152407
1656664,1319307,1152459
1657114,1319088,1151762
1657363,1319223,1151294
1657457,1318458,1150946
1657335,1317761,1151123
1657048,1316142,1151160
1656833,1314924,1150586
1656451,1313079,1150520
1656004,1311655,1150453
1654174,1306709,1149703
1652629,1303815,1148381
1652168,1302018,1146056
1652140,1302784,1143984
1651760,1302329,1142183
1652179,1302914,1140216
1651999,1302909,1137452
1651482,1303344,1135016
1651489,1303646,1132842
1651647,1304078,1128796
1651793,1304401,1126111
1651767,1304935,1124481
1651837,1305228,1122558
1651622,1305898,1120889
1651734,1306290,1118997
1651877,1307190,1117779
1651986,1307602,1115882
1651932,1308120,1114137
1651815,1308312,1113335
1652061,1308791,1113506
1651864,1308642,1113076
1652114,1308813,1113333
1651751,1308679,1114229
1651447,1308535,1115879
1651447,1307918,1116624
1651647,1307848,1118801
1651392,1307626,1119322
1651434,1307864,1119740
1651311,1307436,1120686
1651203,1307438,1121328
1651070,1308008,1121382
1651159,1307850,1121423
1651258,1308359,1121190
1651266,1308686,1121990
1651360,1309145,1122055
1651518,1309080,1122866
1651630,1309518,1122619
1651796,1309571,1124136
1652219,1310198,1124567
1652760,1310136,1125129
1652928,1310614,1126137
1653332,1311602,1126982
1653594,1312741,1127421
1653984,1312974,1128141
1654713,1313745,1128193
1655025,1313631,1128218
1654815,1314057,1127958
1654665,1314395,1129190
1655301,1314858,1129947
1655249,1314975,1130373
1655557,1315867,1130976
1655850,1316283,1132053
1656246,1315502,1133885
1655179,1311747,1135814
1651780,1306737,1136887
1651494,1305315,1137242
1650826,1304193,1136410
1650232,1303704,1136578
1649631,1302809,1135705
1648638,1302360,1134091
1648098,1302851,1132041
1647965,1303658,1130981
1648426,1304793,1128913
1649095,1305597,1127136
1649805,1306301,1127121
1649514,1305715,1126779
1649834,1306253,1127396
1650065,1305388,1127479
1649652,1305147,1128988
1649899,1304131,1131002
1649062,1303707,1133329
1649318,1303599,1135865
1649029,1303267,1137817
1649239,1302739,1139755
1649263,1302859,1141058
1649584,1303434,1142812
1650398,1303701,1143034
1650967,1304003,1142881
1651189,1304630,1142980
1651459,1304602,1143368
1651494,1305079,1143474
1652551,1305185,1144744
1652016,1305800,1146255
1651360,1306102,1147339
1652230,1306604,1147351
1652198,1306903,1147737
1652268,1307712,1149077
1652289,1307948,1151414
1652004,1307902,1152322
1651991,1309868,1152846
1652601,1313386,1152811
1652791,1312695,1152925
1652359,1314860,1152416
1652563,1313023,1152493
1652114,1311455,1152165
1650326,1308272,1152099
1649671,1306573,1151830
1648810,1303820,1152148
1646985,1301845,1151102
1645131,1299155,1150726
1644039,1298945,1150534
1644312,1299937,1150701
1644263,1301057,1152305
1644611,1301527,1153836
1645141,1304136,1155566
1645295,1303053,1156969
1645894,1303315,1158310
1643299,1304238,1158725
1645352,1304334,1160353
1646227,1304806,1161583
1646048,1304510,1162369
1645551,1303541,1164559
1645379,1303119,1166311
1645305,1303073,1167848
1645003,1303544,1168725
1645214,1303875,1168212
1645721,1305404,1167322
1645653,1305276,1167328
1645985,1305852,1167410
1646360,1306287,1167760
1645702,1307213,1168765
1645834,1307563,1169058
1646242,1308188,1168647
1646658,1308156,1169035
1646506,1309115,1170825
1647010,1309013,1172207
1647184,1309717,1172713
1647108,1310053,1174279
1647245,1310766,1175513
1648160,1311042,1177387
1648178,1311673,1177452
1648442,1311733,1177643
1648833,1313420,1177220
1649015,1314656,1176679
1649248,1315572,1175836
1649835,1315723,1175617
1650313,1316140,1174215
1650138,1316060,1174310
1649907,1316303,1173670
1649975,1315865,1173920
1649763,1315054,1173426
1649386,1313702,1172412
1648781,1312430,1167668
1648185,1310121,1165975
1647163,1308514,1164102
1646418,1306658,1162031
1646000,1305360,1161268
1645416,1303856,1161275
1644664,1302975,1161449
1644084,1301769,1161513
1643459,1301647,1163054
1643208,1301450,1164392
1642758,1302183,1166196
1642477,1302369,1168708
1642477,1302776,1170795
1642444,1302916,1173130
1642746,1303589,1174287
1642759,1304011,1176540
1642887,1304404,1177824
1643102,1304594,1179388
1643637,1305626,1180732
1643871,1306462,1181761
1644027,1306654,1181322
1644459,1307492,1180856
1644610,1307772,1179377
1644720,1308345,1178951
1645045,1308606,1178896
1645337,1309223,1178871
1645515,1309264,1179147
1645855,1309431,1179704
1646220,1309260,1181327
1646021,1309044,1182978
1646432,1308462,1184727
1646480,1308285,1184160
1646859,1307512,1184439
1646981,1307210,1183353
1646981,1306193,1182469
1647618,1305186,1182102
1648137,1303972,1181008
1648996,1303160,1180549
1649743,1302166,1181480
1650007,1301209,1181144
1651010,1300539,1182844
1651436,1300284,1184197
1651457,1300478,1185882
1651446,1300789,1187092
1651496,1301470,1189472
1651404,1301605,1189403
1651303,1302000,1189809
1651437,1304097,1189863
1652797,1306037,1190267
1652755,1307270,1190105
1653027,1308728,1189280
1653600,1309226,1189132
1653834,1309549,1188812
1653892,1309893,1189288
1653966,1310606,1188562
1654066,1310831,1188275
1653989,1311233,1188921
1654426,1311446,1189506
1654535,1311809,1189915
1654240,1311982,1190453
1654975,1312819,1190191
1654451,1310275,1190425
1653277,1305081,1190489
1650616,1300584,1190724
1649058,1298240,1191727
1649517,1298117,1192752
1649290,1298052,1194914
1649131,1298202,1196864
1649172,1299303,1197817
1649117,1299526,1198953
1649613,1300512,1199644
1649745,1301204,1200278
1651954,1303332,1200080
1650952,1305192,1199552
1652723,1306768,1199286
1652489,1306857,1198823
1654079,1305726,1198908
1653186,1305488,1198778
1652865,1305515,1198613
1652591,1305199,1197708
1652688,1304830,1197585
1654188,1304928,1197344
1652955,1305250,1197443
1655483,1306071,1198881
1654038,1307618,1199434
1656723,1309629,1199245
1655210,1312014,1200843
1657233,1313173,1201624
1656135,1314043,1203768
1656186,1315106,1205112
1656483,1315283,1207047
1656572,1315746,1207932
1658058,1316027,1209368
1657419,1317348,1211332
1659086,1317835,1212509
1658048,1316340,1213779
1657511,1310838,1214787
1654850,1305543,1216523
1653515,1302083,1218310
1653057,1301726,1220646
1653180,1301771,1222244
1653126,1301866,1223518
1652447,1302111,1224547
1652162,1302525,1225876
1652957,1302634,1228500
1653037,1303422,1230055
1652837,1303689,1231856
1652952,1304257,1233688
1653538,1306154,1235305
1654328,1308477,1235898
1655389,1309453,1237791
1655806,1309902,1238411
1655983,1309660,1239269
1655967,1309506,1239527
1655535,1308460,1239317
1655873,1307810,1239724
1655953,1307232,1240619
1655519,1307139,1241107
1655928,1306763,1241689
1656552,1306989,1241657
1657650,1307130,1242069
1658013,1308145,1242825
1659111,1309083,1244317
1659468,1309465,1244153
1660284,1309529,1244681
1660772,1309928,1244552
1660614,1310274,1244233
1660546,1310587,1243647
1661020,1310503,1241734
1661300,1311069,1240427
1661495,1311070,1239498
1661655,1311597,1238187
1661615,1311493,1238006
1661854,1311840,1235725
1662548,1311922,1234705
1662452,1312192,1234042
1663316,1311284,1232155
1662090,1307957,1230516
1660131,1300565,1229400
1658644,1294627,1229111
1657479,1293294,1228105
1657056,1292406,1227589
1656758,1291611,1227346
1656441,1291344,1228098
1656672,1291443,1228536
1656222,1291612,1229115
1656069,1292247,1230123
1655888,1292497,1229789
1655906,1293442,1229723
1656320,1294269,1229541
1656516,1294983,1229056
1657062,1295381,1227686
1657158,1296093,1226216
1657260,1296400,1225673
1657389,1297159,1225268
1657756,1297739,1223029
1657719,1298522,1222911
1657907,1299164,1221798
1657722,1299604,1220515
1657722,1299791,1220183
1657754,1299977,1218947
1657978,1300342,1216985
1658057,1300361,1214713
1657845,1299767,1212116
1657657,1299706,1209654
1657216,1299248,1208110
1657223,1299039,1206682
1656813,1299056,1207444
1657005,1298956,1207625
1657066,1299175,1207333
1656735,1298916,1207607
1656669,1299330,1208085
1656841,1299681,1207010
1656802,1300152,1205044
1657009,1300716,1204365
1657011,1301515,1201672
1657069,1301805,1198955
1657418,1302668,1193229
1657450,1303419,1190877
1657492,1304479,1188616
1657970,1304979,1186757
1658216,1306379,1185343
1658633,1307031,1183703
1658710,1307765,1182394
1659109,1308121,1180863
1658926,1309106,1179284
1658967,1309754,1178056
1659122,1310179,1176758
1659437,1310625,1175050
1659562,1311002,1173782
1659818,1311443,1173172
1660239,1311587,1172599
1660298,1311809,1172825
1660372,1312312,1173260
1660585,1312717,1173802
1660801,1312886,1172734
1661290,1313273,1172398
1661309,1313493,1171165
1661349,1313616,1170713
1661157,1313741,1170704
1661208,1313346,1170632
1660644,1313032,1169895
1659807,1311984,1169888
1659807,1310465,1169922
1659271,1308313,1169998
1658303,1306106,1169158
1656549,1303916,1168601
1656017,1301524,1168170
1654833,1298325,1167820
1653588,1297587,1168252
1653591,1296613,1169024
1652501,1296771,1169213
1652611,1298124,1169009
1653125,1300437,1169542
1654048,1302811,1170355
1654623,1304296,1170099
1654984,1305151,1170577
1655286,1305593,1169429
1654979,1305545,1168783
1656130,1305266,1169091
1655696,1305099,1169279
1655303,1304752,1169374
1654760,1304212,1170069
1655029,1302905,1170865
1654673,1302380,1171488
1654642,1301678,1171754
1654270,1301948,1171786
1655210,1302962,1171391
1655302,1304217,1171233
1656042,1305299,1171222
1656156,1305716,1170815
1656531,1306306,1170198
1656492,1306654,1170618
1656942,1307470,1170528
1656998,1307866,1169249
1657226,1308212,1168127
1657624,1308499,1167012
1658002,1309041,1165431
1658014,1309245,1164811
1658401,1310486,1164211
1659075,1311326,1164513
1659750,1312014,1164613
1659498,1309697,1166034
1657148,1302658,1166271
1656339,1300676,1166834
1655609,1298150,1167024
1654544,1296555,1167685
1654053,1293309,1169267
1652933,1292043,1169966
1652647,1291453,1170455
1652818,1293160,1171672
1653163,1294985,1171810
1654016,1297180,1172609
1654970,1299079,1173410
1655112,1300193,1174153
1655890,1300066,1175043
1655988,1300236,1175314
1655717,1300347,1176894
1655835,1299525,1176755
1655010,1299222,1177737
1654942,1298009,1177780
1654670,1297929,1177903
1654866,1298808,1178975
1655695,1300251,1178230
1656625,1301634,1178753
1656621,1302493,1178432
1657014,1302552,1178289
1657306,1303285,1177758
1657192,1304357,1176447
1657953,1304678,1175749
1658242,1305623,1175154
1658598,1305976,1176135
1659078,1307339,1175641
1660032,1308479,1174505
1660544,1309223,1174779
1660989,1309851,1174403
1661200,1309354,1174095
1661076,1309023,1175442
1660671,1307082,1175971
1659630,1303260,1176828
1658122,1301392,1178184
1657262,1296790,1179528
1655605,1294555,1178182
1654013,1291555,1178213
1653722,1291789,1178393
1653657,1293904,1177763
1654441,1296022,1178599
1655195,1298330,1180447
1655219,1300412,1181704
1655889,1301248,1181669
1656441,1301805,1181666
1656251,1302731,1181481
1656208,1302431,1181819
1656295,1302744,1182331
1656296,1302325,1182667
1656518,1302403,1183732
1656382,1302005,1184632
1656100,1301414,1186291
1655791,1300760,1188445
1655870,1300842,1189136
1655803,1300559,1190511
1655915,1300540,1191361
1656118,1300277,1191539
1655913,1300190,1192757
1655997,1300260,1194477
1656348,1300637,1195393
1656237,1301015,1194853
1656536,1301386,1193357
1656894,1302141,1190816
1657216,1302626,1185570
1657451,1302906,1183162
1657720,1303226,1181173
1658100,1303866,1179449
1658243,1304261,1178127
1658657,1304237,1176964
1658987,1304455,1175714
1659346,1304791,1174258
1659588,1305294,1173468
1659596,1305489,1172038
1659857,1305875,1171523
1660002,1306335,1170417
1660441,1306929,1170067
1660961,1307049,1169022
1661422,1307231,1167202
1661348,1307398,1166561
1661724,1307556,1166963
1661815,1307768,1166966
1662272,1308350,1167634
1662290,1308373,1168350
1662290,1308409,1170807
1662679,1308242,1172071
1662672,1308308,1173431
1662793,1308531,1175816
1663029,1308281,1175562
1662970,1307612,1175652
1662610,1305543,1175672
1662269,1301066,1175265
1660546,1298560,1175055
1659612,1296081,1175756
1659205,1293385,1175897
1657862,1291192,1175614
1657062,1289785,1174558
1656586,1288600,1174331
1656285,1287925,1173741
1656122,1287779,1173071
1656411,1287873,1172725
1656080,1288187,1172723
1655851,1288694,1172498
1656224,1289555,1172710
1655735,1290330,1172356
1655680,1291096,1172605
1655680,1291423,1172888
1656619,1292145,1173997
1656342,1292364,1175068
1656687,1293297,1177911
1656955,1293676,1178886
1656960,1294088,1180053
1657581,1295474,1180656
1658020,1296282,1181746
1658242,1296363,1183121
1658331,1296652,1183594
1658231,1296757,1183630
1659001,1296345,1184302
1658579,1296242,1184224
1658636,1297495,1184321
1658648,1295931,1184724
1658740,1295014,1185288
1657476,1294362,1186075
1658240,1293836,1186943
1657616,1293523,1188400
1657924,1295623,1189341
1657632,1294231,1190206
1657298,1293996,1191138
1655787,1293884,1192008
1657345,1296654,1193583
1657893,1295923,1194991
1658075,1296135,1195334
1656141,1297089,1193785
1658261,1297641,1191724
1658569,1299081,1190310
1658897,1299457,1188586
1657020,1299787,1186428
1658884,1300207,1185207
1659456,1300751,1182811
1659797,1303065,1182403
1660216,1302044,1181566
1660247,1302471,1181633
1660470,1303801,1181717
1661005,1305976,1182802
1660969,1306693,1181978
1661417,1308680,1181639
1661496,1307864,1180256
1661836,1308219,1179271
1659938,1308322,1179496
1661768,1308157,1178084
1661880,1306990,1178259
1659820,1300970,1177750
1657101,1294333,1176983
1655457,1290447,1177902
1654707,1290249,1178408
1654644,1291389,1178364
1654857,1292269,1179673
1655034,1292501,1179719
1655193,1293546,1179397
1655025,1293818,1178964
1655402,1294720,1178826
1655187,1295045,1178784
1655546,1296082,1178721
1655944,1297042,1179776
1655732,1298360,1180161
1655962,1298897,1180421
1656072,1299978,1181249
1655911,1300686,1181357
1656107,1301409,1181405
1656677,1301583,1181649
1656630,1302279,1181146
1656488,1301733,1180910
1656489,1302060,1179165
1656099,1301472,1178976
1656344,1301207,1178071
1656135,1300812,1177488
1655893,1300460,1179788
1655893,1299886,1181472
1656002,1299798,1182277
1655857,1299911,1183085
1655877,1300116,1185608
1655964,1300039,1186444
1655668,1300648,1187457
1655924,1301736,1188673
1656093,1302168,1189599
1656468,1303790,1190850
1657397,1305279,1192450
1657995,1307064,1193487
1658837,1307759,1194205
1659329,1309288,1193574
1659670,1309984,1193501
1660032,1310225,1193167
1660497,1310538,1193908
1660197,1311169,1193971
1660639,1311606,1192481
1660975,1312364,1192724
1661302,1313196,1193692
1661264,1312486,1194216
1659640,1308282,1194755
1657027,1301277,1195370
1655055,1296165,1195750
1654291,1295083,1195288
1654185,1294738,1194531
1653460,1294605,1192553
1652814,1295083,1190780
1653116,1295267,1189154
1653022,1295670,1187413
1653397,1297322,1184771
1653832,1298922,1182633
1654630,1301166,1182598
1655158,1302661,1181359
1655811,1303438,1181160
1655792,1303680,1179745
1655861,1303280,1180042
1655513,1302975,1180900
1655569,1302440,1181384
1655332,1302284,1181634
1654885,1302009,1184510
1654761,1301397,1185154
1654720,1301254,1186276
1654343,1301045,1187626
1654434,1301231,1187877
1654276,1301220,1188160
1654388,1301315,1187926
1654314,1301666,1188494
1654464,1302244,1188767
1654299,1302819,1189203
1654222,1303322,1189595
1655341,1305286,1188921
1655679,1306859,1187563
1655897,1308513,1186345
1656206,1309321,1185671
1656611,1309940,1185144
1656967,1310267,1185562
1657081,1311127,1185415
1656759,1311736,1185474
1656867,1312211,1187372
1657409,1312537,1187175
1657480,1312857,1187816
1657876,1312891,1188625
1658061,1313106,1189874
1658149,1313249,1190593
1657055,1313790,1193365
1658291,1313984,1194110
1658758,1314281,1194039
1659234,1314758,1194799
1659461,1314840,1195529
1659223,1314931,1196003
1658675,1315434,1196990
1659390,1315679,1196436
1659495,1316193,1197261
1659546,1316557,1198915
1659546,1316019,1199776
1659429,1315406,1201269
1659510,1314081,1203341
1658934,1312493,1204670
1657745,1310253,1206975
1657234,1308265,1208857
1655980,1305891,1210986
1654871,1303524,1213390
1655682,1301408,1214992
1653889,1298611,1216537
1651764,1297877,1218147
1651233,1297276,1218900
1651004,1297313,1219520
1652861,1297519,1218407
1651458,1298022,1217557
1651197,1298690,1216769
1651150,1299160,1214525
1651287,1299464,1212307
1651340,1300173,1208875
1653524,1300693,1206170
1652220,1301527,1203872
1651768,1302855,1201426
1651882,1302667,1199367
1651882,1303122,1198105
1652083,1303934,1198359
1652225,1304365,1198384
1654226,1305301,1199135
1653458,1305480,1200434
1653405,1305803,1202531
1652898,1306061,1204890
1654954,1305643,1207677
1654143,1305479,1210608
1653482,1305398,1213414
1653193,1304301,1215366
1652721,1303560,1217331
1652256,1303384,1215808
1651978,1302800,1215077
1651966,1302334,1214615
1652501,1302392,1213525
1653335,1302269,1211986
1654285,1302503,1211763
1654084,1302865,1211559
1654333,1303683,1210729
1654700,1304069,1209131
1654884,1304464,1207991
1655320,1304976,1206325
1655393,1305866,1206008
1655079,1305969,1205873
1656296,1307466,1205195
1656708,1308217,1206503
1657318,1308987,1207402
1657669,1309510,1209176
1657543,1310517,1211527
1657868,1310372,1213691
1658282,1310682,1214944
1657762,1310005,1216301
1657835,1307397,1217608
1655888,1305684,1219175
1653368,1298807,1220583
1650753,1293664,1220938
1649482,1291959,1221148
1648883,1292803,1221037
1649461,1294232,1220988
1649693,1295150,1220985
1650101,1295156,1221583
1650200,1296171,1221592
1650129,1297442,1220763
1650552,1298180,1221306
1650809,1299278,1222805
1650822,1299891,1223988
1651228,1300780,1224910
1651422,1301234,1224733
1651508,1301542,1224124
1651665,1301625,1225061
1651553,1301959,1225514
1651665,1300799,1225418
1651141,1300063,1225264
1650884,1299992,1225677
1650820,1300872,1226985
1650610,1300968,1227834
1650446,1302007,1228035
1650898,1302890,1228116
1650875,1304451,1226320
1651181,1304837,1223764
1651385,1305743,1220993
1652242,1307385,1217828
1652621,1309111,1214777
1654032,1310643,1212685
1654302,1312095,1210280
1654552,1312930,1208771
1654627,1313893,1206536
1654886,1314108,1204591
1654927,1314876,1202799
1654981,1315393,1200377
1655728,1315652,1199531
1655696,1315713,1199454
1655455,1314587,1199242
1653506,1309126,1199041
1650234,1302330,1198715
1648195,1296940,1198376
1646581,1295550,1198509
1646948,1295760,1197689
1646977,1296191,1197781
1647004,1296495,1198801
1647048,1297470,1200167
1646943,1297939,1200978
1646895,1298590,1201442
1647457,1299271,1200856
1647616,1299933,1200130
1647942,1300833,1197895
1647952,1301446,1195780
1648112,1301806,1194891
1648488,1302731,1193785
1649222,1303250,1191921
1649601,1303823,1190764
1650473,1304579,1190448
1650294,1304671,1189337
1650518,1305060,1188505
1649989,1304402,1187664
1649276,1302997,1186241
1649588,1303002,1183899
1649700,1303015,1182528
1649317,1303002,1181617
1649166,1303679,1181097
1648924,1303408,1181651
1649264,1303338,1186740
1649317,1303803,1190677
1649920,1304113,1195595
1649579,1304217,1199570
1649722,1304979,1203084
1649935,1305480,1207354
1650269,1306081,1211266
1650609,1306527,1214073
1651123,1306967,1215875
1651215,1307365,1217222
1651433,1308616,1216922
1651569,1308379,1217767
1652164,1308774,1216670
1651179,1309296,1215312
1651179,1309224,1215079
1652096,1309456,1214651
1652827,1311420,1214090
1653085,1310270,1213753
1653382,1310087,1212533
1653601,1310329,1211771
1653945,1310955,1211125
1654295,1313458,1209664
1654617,1312373,1207063
1654643,1312481,1203951
1652475,1312672,1202889
1654381,1312920,1200208
1654878,1312973,1197196
1655415,1315137,1194581
1655788,1314013,1191209
1656172,1313909,1188291
1654238,1313797,1184930
1655835,1313162,1183620
1656084,1311962,1181581
1653675,1307179,1179924
1650782,1299097,1178479
1650149,1298470,1176425
1649290,1295953,1174498
1648880,1294349,1172401
1646729,1293655,1172256
1647407,1293271,1171554
1647437,1293042,1170572
1647844,1293838,1170660
1647905,1293617,1170977
1648043,1294140,1171672
1646798,1294552,1172289
1647710,1294981,1173038
1647717,1295556,1173137
1649329,1297605,1173150
1650787,1299772,1173514
1651576,1301023,1174357
1651725,1301222,1173939
1652020,1301608,1173507
1651892,1300976,1173296
1651844,1300008,1173671
1651084,1299876,1173372
1651513,1298737,1172600
1651085,1298019,1173428
1650965,1298103,1174691
1651066,1298586,1174370
1652083,1300168,1173490
1651930,1301899,1174216
1652593,1303627,1174946
1653101,1304092,1176223
1653501,1305125,1178666
1653401,1305732,1181573
1653698,1307319,1183887
1653986,1308093,1187680
1654346,1309881,1198061
1654954,1311417,1203881
1655838,1312188,1208240
1656318,1313489,1212497
1655398,1310470,1214904
1652551,1304450,1215892
1652225,1301644,1214986
1651313,1299489,1215093
1650321,1297615,1213476
1649245,1296133,1212787
1649074,1294817,1210976
1648467,1294369,1209895
1648270,1294258,1209865
1648773,1296264,1208869
1649603,1298724,1207885
1650528,1300853,1207463
1651473,1303065,1206566
1651883,1303890,1206162
1651875,1304301,1204534
1651970,1305002,1202919
1651831,1305402,1200927
1652113,1305520,1199263
1651975,1305226,1196320
1652137,1304906,1195649
1651707,1304379,1194620
1651365,1302890,1194217
1651402,1302798,1194687
1651938,1303530,1195162
1651941,1304876,1195519
1652715,1306462,1195902
1653066,1307722,1194833
1653337,1308282,1194826
1652986,1309568,1193291
1653614,1310677,1190485
1653898,1311846,1188348
1654385,1312072,1185892
1655094,1313821,1183210
1655734,1314826,1181023
1656796,1316358,1178102
1657247,1316888,1176476
1657031,1316335,1174414
1657293,1315796,1174476
1656864,1314142,1174441
1656254,1312121,1174365
1655619,1309513,1174758
1654504,1306945,1175428
1653200,1304659,1175680
1652212,1302181,1175004
1651201,1299974,1175283
1650849,1298090,1176986
1650110,1296534,1178935
1649804,1295070,1180995
1649221,1295934,1184133
1650376,1297890,1187185
1651057,1299621,1192378
1652041,1301156,1197288
1653511,1302161,1201305
1652992,1302628,1203982
1652908,1303363,1204933
1653151,1303854,1205223
1652681,1303998,1205215
1653125,1303933,1204402
1654607,1303882,1202892
1653562,1303714,1201655
1652818,1302066,1200801
1652862,1301027,1199075
1652547,1301181,1198432
1652924,1301873,1198260
1652726,1303101,1197744
1653365,1304006,1198010
1655292,1304720,1198289
1654100,1305477,1199385
1654097,1306817,1199350
1654158,1306926,1198692
1654252,1307237,1197295
1654571,1307604,1195932
1656812,1308217,1195228
1655658,1308666,1195624
1655666,1309486,1194637
1655630,1309277,1194563
1655915,1309838,1194703
1656066,1309936,1194050
1658325,1310390,1193804
1657385,1310758,1193791
1657414,1311793,1193422
1657969,1311161,1193050
1657782,1311457,1191824
1657252,1311739,1192061
1659141,1312238,1192158
1658127,1312606,1191461
1658127,1313326,1191461
1658134,1312655,1191220
1658278,1312260,1191804
1658205,1311910,1191240
1657808,1310894,1190524
1659064,1309040,1190331
1655328,1304787,1188113
1654360,1302186,1187434
1653356,1299460,1187052
1653261,1297138,1186819
1651438,1294894,1186595
1650690,1293238,1187864
1650032,1291974,1187216
1649638,1291432,1187801
1649134,1291437,1187313
1650449,1291440,1187397
1649807,1291581,1186089
1649700,1291856,1184789
1649982,1294123,1183021
1650967,1296064,1181084
1651239,1296810,1179903
1651595,1296813,1177704
1651574,1297955,1174855
1652359,1298123,1173146
1652309,1299466,1171710
1652264,1299754,1170932
1652537,1300443,1169943
1652558,1300599,1169400
1652610,1301002,1169540
1652815,1300586,1170092
1652725,1300525,1170049
1652532,1299727,1171419
1652253,1299669,1172803
1652109,1298958,1174455
1652221,1298920,1175987
1652362,1298203,1175868
1651490,1298186,1175511
1651633,1297442,1175050
1651469,1297987,1174316
1651729,1297799,1174503
1651516,1298210,1175104
1651347,1298238,1175381
1651347,1298597,1175267
1651142,1298683,1176291
1651399,1299490,1177801
1651509,1299954,1178145
1651525,1300794,1180103
1651747,1300959,1182127
1652181,1302355,1184492
1652502,1303131,1187082
1652659,1303683,1189695
1653530,1305453,1191008
1654126,1306512,1192464
1654772,1308512,1192272
1654813,1308928,1191863
1655377,1310133,1191636
1655678,1310384,1191835
1655632,1310681,1191807
1655750,1310785,1191305
1655933,1311295,1191383
1655612,1310898,1192065
1655166,1310754,1192916
1654851,1309448,1192058
1654049,1307983,1192571
1652926,1306005,1192362
1651984,1303770,1191843
1650891,1301108,1191587
1649382,1299326,1190952
1648473,1296747,1190428
1647631,1295535,1189622
1647195,1294431,1187580
1645605,1293969,1187779
1645071,1295573,1186827
1644970,1297395,1186864
1645417,1298031,1186930
1645416,1298767,1186587
1645718,1299350,1187165
1645670,1300192,1187575
1645509,1301284,1187575
1645656,1302131,1188667
1646241,1303264,1189147
1646722,1303777,1190358
1646479,1304357,1190496
1646309,1304386,1190265
1645962,1304984,1190098
1646183,1304706,1189433
1646043,1303697,1189106
1645452,1303317,1188390
1644705,1303861,1188398
1645042,1304206,1187627
1645147,1304696,1187900
1645173,1305201,1187082
1645453,1306019,1185418
1645497,1306277,1182871
1646125,1308280,1181920
1646544,1309928,1179942
1647027,1311408,1178632
1647886,1312550,1177617
1648406,1313817,1176250
1648264,1314933,1175020
1648747,1315527,1173758
1648813,1315861,1172293
1648567,1316279,1172621
1648519,1316414,1172033
1648812,1316917,1172164
1648346,1316819,1172518
1648337,1314911,1172695
1645977,1309459,1172966
1642787,1304304,1172237
1641137,1300942,1172319
1640388,1300377,1172062
1640723,1300887,1172266
1640591,1300921,1171412
1640560,1301409,1169777
1640370,1302142,1169668
1640023,1302572,1168366
1640466,1303227,1167359
1640690,1303974,1166550
1640829,1304581,1165754
1641353,1305925,1164983
1641823,1306949,1165001
1642616,1307171,1163750
1642057,1306044,1164179
1641958,1304882,1162724
1641666,1305046,1163360
1641441,1304991,1164192
1641182,1304715,1163496
1640999,1305409,1164444
1642173,1305628,1164349
1641537,1305830,1163638
1641764,1307347,1163080
1642135,1308985,1162352
1643119,1310504,1162225
1643379,1311895,1162672
1643775,1312933,1164087
1644751,1313595,1164591
1644470,1313720,1165378
1644521,1314904,1166018
1644960,1314758,1165650
1644897,1315252,1164953
1644883,1315280,1164220
1645150,1315775,1163962
1645022,1315901,1164163
1645136,1317571,1164771
1644977,1316726,1166542
1644934,1316697,1167201
1644951,1317111,1167201
1645853,1317486,1167061
1645675,1317600,1167359
1645894,1319592,1167801
1645651,1317810,1167888
1645570,1317100,1168838
1644548,1315981,1169116
1644494,1314816,1169216
1643935,1312904,1169304
1642597,1313875,1169783
1642597,1310044,1170175
1641408,1308439,1170035
1640816,1306551,1169199
1639514,1306174,1168855
1639225,1305193,1167203
1638802,1307091,1166303
1638399,1304993,1166931
1637974,1304440,1166130
1638028,1305167,1165890
1638272,1305141,1165017
1638381,1304843,1164842
1638424,1305353,1167004
1638579,1305445,1167539
1638979,1305814,1168810
1639385,1305821,1169657
1639513,1306451,1170118
1639588,1306345,1170045
1639737,1306875,1168759
1639893,1307113,1167376
1640351,1307499,1164675
1640396,1307530,1163039
1640155,1307816,1161597
1640155,1307226,1161618
1640493,1307526,1161761
1640452,1307078,1161896
1640511,1307136,1162795
1640421,1306483,1164030
1640311,1306293,1164407
1639935,1305921,1164951
1639833,1305617,1165788
1639647,1305718,1166115
1639768,1305886,1166925
1639839,1305966,1167572
1639620,1306006,1168571
1639525,1305828,1171138
1639591,1306353,1172930
1639524,1306700,1175285
1639926,1307182,1176133
1640322,1307313,1176654
1640316,1308081,1176672
1640635,1308710,1175480
1641135,1310302,1174387
1640905,1311412,1173172
1641763,1312101,1172034
1641931,1312061,1172284
1641939,1312818,1172604
1642109,1312798,1172404
1642433,1313105,1171548
1642593,1313272,1171314
1642829,1313616,1170314
1642798,1313495,1169484
1642836,1313951,1169329
1642752,1314420,1168193
1643098,1314779,1168091
1643068,1314944,1167133
1643475,1315604,1165306
1643554,1315879,1164740
1643704,1316208,1163561
1643540,1316673,1163892
1643730,1316924,1162686
1644191,1317220,1162683
1644299,1317540,1162410
1644540,1317049,1162039
1644632,1316535,1162285
1644240,1315512,1161965
1643866,1312575,1162476
1642665,1311034,1163993
1642275,1307185,1163804
1640495,1305421,1163976
1638817,1302905,1163699
1638109,1301521,1163282
1638269,1301383,1163345
1639077,1300817,1163448
1639963,1300506,1163185
1640296,1301208,1163194
1640263,1301152,1163983
1640585,1301307,1163585
1640591,1301540,1164788
1640325,1302244,1165749
1640868,1302013,1169320
1640701,1301832,1170667
1640276,1300780,1172731
1639798,1300095,1174773
1640081,1299791,1176579
1639710,1300073,1178687
1639775,1300743,1179919
1640051,1301581,1181264
1640246,1301952,1181732
1639915,1302310,1182186
1640064,1303527,1181914
1640020,1303840,1182637
1640246,1304743,1182052
1640642,1305514,1180890
1640665,1306152,1179412
1640443,1306104,1176977
1640474,1306641,1175207
1640622,1307211,1173394
1641001,1307614,1172025
1639833,1308165,1169905
1641490,1308546,1168170
1641877,1309726,1164713
1642300,1310982,1163164
1642535,1311857,1159147
1642628,1312278,1158088
1641691,1312346,1156441
1642801,1312737,1157611
1642669,1313195,1158960
1642623,1314992,1159669
1642568,1313558,1160534
1642724,1312926,1160489
1640903,1311863,1160387
1641519,1310574,1159612
1640980,1309073,1159719
1640033,1309123,1159733
1639201,1306392,1160020
1638669,1304720,1159974
1636391,1303365,1159960
1637081,1302312,1160390
1636499,1301381,1160068
1635777,1302114,1160091
1635389,1300867,1159409
1634407,1300970,1159908
1634759,1301700,1160025
1635212,1301932,1160753
1633776,1302154,1161072
1635076,1302842,1159644
1635555,1303705,1159753
1636064,1304160,1159267
1634736,1304508,1159366
1636762,1306199,1159400
1635706,1305814,1158965
1636382,1305751,1159352
1635362,1305176,1159152
1635639,1304930,1159800
1635453,1305176,1160384
1635817,1305223,1162200
1635323,1305755,1162725
1635498,1306185,1163142
1635741,1306312,1163487
1635744,1306861,1164732
1636017,1307410,1165987
1637031,1307898,1166470
1636596,1308337,1166449
1636540,1308929,1166522
1636741,1309674,1167021
1636976,1310083,1166446
1637363,1311025,1166536
1639255,1311464,1167015
1637855,1313528,1168038
1640422,1314523,1169723
1638580,1316368,1171212
1638444,1316400,1174230
1638640,1317566,1176448
1638344,1318566,1178726
1638413,1318916,1180459
1638747,1319267,1181471
1638926,1319697,1181551
1638937,1320120,1181502
1638830,1320133,1179924
1638822,1320694,1177919
1639052,1321076,1176066
1639171,1321723,1176047
1639496,1321786,1175711
1639815,1322248,1174589
1639832,1321708,1174379
1639389,1321468,1175113
1639518,1320325,1175684
1638815,1319589,1175549
1637934,1317777,1174373
1637934,1316408,1172579
1636968,1314046,1169638
1636325,1312553,1168345
1635353,1311021,1165546
1634462,1309785,1163023
1633934,1308560,1159982
1632263,1307631,1156769
1632139,1307698,1153235
1632019,1307565,1149422
1631821,1307929,1146646
1631999,1307885,1144785
1631983,1308187,1143025
1631999,1308244,1142368
1632503,1308638,1142824
1632874,1308570,1144188
1633212,1309024,1145504
1633271,1309285,1145953
1633469,1309390,1146307
1633645,1309804,1146200
1633973,1310363,1146856
1634377,1310888,1146443
1634140,1311670,1147331
1634140,1311662,1146591
1634412,1312119,1147802
1634563,1311751,1147717
1634910,1311858,1147715
1635054,1311340,1149105
1635389,1311066,1150657
1635192,1310188,1151704
1635297,1309688,1153084
1635185,1309290,1153292
1635354,1308977,1154863
1635256,1308547,1155826
1635318,1307717,1156832
1635109,1307775,1157614
1635189,1307595,1158161
1635520,1307787,1157785
1635659,1307744,1157696
1635830,1308042,1158326
1635819,1307845,1158895
1635717,1308370,1159229
1635675,1308785,1159610
1635978,1309751,1160092
1636047,1310021,1160074
1636047,1310346,1157734
1636220,1310422,1156530
1636626,1310726,1156258
1636935,1311282,1156516
1637074,1311467,1157563
1637628,1311499,1158059
1637541,1312130,1158017
1638505,1312986,1157477
1638498,1313121,1156129
1638907,1313377,1156571
1639253,1313653,1155942
1639246,1314148,1157438
1640296,1314353,1157534
1640959,1315572,1158362
1641823,1315667,1159289
1642490,1316218,1160483
1642919,1316669,1161789
1643110,1316502,1161940
1643099,1316559,1162047
1643109,1315928,1161581
1642885,1315290,1160335
1642749,1312369,1160596
1641185,1310473,1159436
1638569,1304992,1160463
1636405,1301607,1160162
1636205,1300924,1160699
1636262,1301700,1160723
1636674,1302530,1160693
1636754,1302979,1159426
1637119,1303779,1159072
1637282,1304277,1158080
1637441,1305763,1158744
1637788,1306519,1158839
1637688,1307808,1159493
1638752,1308430,1159263
1638805,1309044,1160459
1639006,1309055,1160241
1638933,1309149,1160551
1639026,1308861,1158577
1639448,1308208,1157910
1639337,1307934,1157664
1638473,1308187,1157236
1638609,1308241,1157359
1639936,1308756,1155633
1639822,1309532,1154026
1639774,1310352,1152073
1639614,1310663,1150578
1639914,1311243,1150620
1640757,1311852,1149276
1640568,1312354,1149765
1641188,1313897,1149951
1641862,1315439,1150231
1642644,1316828,1149646
1643727,1317427,1149374
1643584,1318478,1149525
1643931,1318990,1150307
1644801,1319143,1150744
1645073,1319643,1150311
1645130,1319580,1152022
1645329,1319601,1153280
1645559,1320105,1154202
1645510,1319909,1154267
1645139,1319365,1154244
1644339,1315133,1153718
1641802,1309290,1153902
1640021,1304485,1154041
1639259,1302502,1154947
1639344,1302649,1155144
1639455,1302588,1156360
1639299,1302797,1156553
1639542,1303280,1156195
1639703,1303638,1155398
1640109,1304015,1155551
1640385,1304170,1155003
1640809,1304988,1154249
1640998,1305539,1154716
1641300,1305578,1154654
1641501,1306117,1153234
1642500,1307757,1153288
1643171,1309552,1152527
1643356,1308297,1151554
1643330,1307948,1152351
1643277,1307237,1153792
1643018,1307108,1153514
1643072,1306616,1153112
1642809,1306181,1152988
1643172,1307065,1153998
1643096,1307113,1155800
1643244,1307365,1156464
1643401,1307875,1156932
1643330,1307922,1158268
1643551,1308872,1158393
1644007,1309128,1158970
1644428,1309980,1159171
1644549,1310222,1158876
1644929,1311060,1159446
1645159,1311489,1159604
1645192,1312424,1159399
1645935,1313748,1158570
1646518,1315217,1158828
1646685,1315768,1159590
1647106,1316467,1159725
1647295,1316836,1160640
1647240,1317585,1160833
1647299,1317543,1161627
1647691,1318044,1162480
1647898,1318178,1161503
1647939,1318763,1161518
1648193,1318566,1162298
1648881,1319799,1161436
1648667,1318593,1160780
1647059,1314047,1159341
1644810,1307233,1157983
1643687,1305736,1155358
1642944,1303577,1152914
1642066,1302769,1151043
1641762,1301903,1149510
1641102,1301985,1149347
1640738,1301761,1148611
1640766,1302164,1148802
1640757,1302357,1149162
1640864,1303000,1150247
1641021,1303212,1152074
1640798,1304080,1154168
1641125,1304264,1154572
1641414,1305183,1156002
1641596,1305567,1157317
1642135,1306323,1159048
1642519,1306920,1161013
1642373,1307740,1161536
1642713,1308244,1162137
1643095,1309186,1163239
1643389,1309728,1166907
1643459,1310523,1168934
1643382,1311247,1170758
1643382,1311709,1172336
1643261,1311822,1173040
1643525,1312031,1175414
1643733,1311757,1178023
1643575,1311531,1179379
1643322,1310941,1180782
1643211,1311020,1180887
1642880,1310709,1182186
1642894,1310380,1183234
1642539,1310466,1183369
1642678,1311143,1183953
1643645,1312834,1184268
1644136,1313926,1184197
1644472,1315791,1183712
1644968,1316489,1182825
1645068,1317006,1182063
1645363,1317488,1181182
1645372,1318010,1181817
1645758,1318689,1182870
1645215,1319227,1184185
1645893,1319019,1187058
1646094,1319779,1188866
1646494,1320338,1191412
1647088,1321258,1192668
1647515,1322070,1194780
1647728,1323331,1195267
1648129,1323027,1196278
1646564,1319265,1195788
1646019,1317583,1195724
1644948,1315088,1195536
1644213,1312831,1194986
1643016,1310721,1195453
1642029,1308944,1195316
1640718,1307415,1195398
1640372,1306250,1194347
1639991,1305510,1193901
1639428,1305564,1193621
1639225,1305232,1193931
1639080,1305290,1193670
1638802,1305465,1193662
1639169,1307610,1193188
1639923,1309661,1193856
1640857,1311157,1193211
1641100,1312482,1192407
1641946,1313513,1191685
1641781,1313598,1190021
1641864,1315105,1187399
1641492,1313632,1185472
1641325,1313782,1183952
1641961,1312689,1182154
1641010,1313375,1180431
1640785,1312713,1179901
1640747,1311841,1178248
1639637,1311651,1178043
1640508,1313373,1177409
1639345,1313071,1175609
1641622,1316220,1174966
1640345,1315538,1175027
1642242,1316567,1174767
1642657,1316925,1175385
1642871,1319161,1174673
1642708,1318526,1176013
1640995,1318522,1177321
1643409,1319215,1178251
1643912,1321368,1179823
1644225,1320315,1180815
1644017,1320297,1181074
1641803,1320722,1180713
1645340,1322826,1180190
1644046,1321900,1180334
1646373,1323803,1180251
1644631,1322640,1179443
1646280,1322744,1179693
1646760,1322072,1179585
1646389,1320321,1179469
1645295,1318622,1179054
1643085,1314069,1178065
1642491,1311581,1176613
1640348,1306305,1175850
1638844,1304674,1175608
1638971,1305223,1176301
1638890,1306534,1175431
1639362,1308718,1174966
1638242,1309412,1174841
1639876,1310413,1174511
1640555,1310692,1173980
1640331,1312349,1173934
1640705,1313127,1173449
1641269,1313185,1174260
1641307,1313871,1173618
1641348,1313669,1173966
1641399,1313843,1174416
1641404,1312915,1176650
1641217,1313049,1177316
1640697,1311633,1179577
1640750,1311138,1181108
1640742,1311238,1184454
1640645,1311906,1187377
1641220,1312299,1190682
1641353,1312850,1192805
1641667,1312947,1194773
1641663,1313725,1196696
1641900,1314361,1198698
1642428,1315427,1199507
1642729,1315643,1198407
1643517,1317232,1198645
1644040,1317883,1198199
1644972,1319349,1196591
1645186,1320274,1194907
1645400,1321172,1194699
1645892,1321229,1194332
1646321,1321462,1193701
1646395,1321400,1192953
1646361,1321741,1191868
1646348,1321193,1191027
1646141,1320995,1190308
1646009,1319545,1189950
1645410,1318393,1187707
1644843,1315831,1186369
1643708,1313687,1184071
1643282,1311441,1182773
1642161,1309412,1179761
1641881,1307316,1178044
1641206,1305710,1177659
1640635,1304172,1176359
1640121,1303506,1176615
1640281,1302816,1177579
1639926,1302929,1179557
1639651,1303169,1181000
1639056,1303542,1183319
1639056,1303928,1186835
1639221,1304334,1188456
1639504,1305291,1190196
1639901,1305678,1192929
1639819,1305884,1194688
1640103,1306435,1195723
1640529,1307793,1196836
1640941,1308689,1198024
1641120,1309632,1197986
1641378,1310102,1198474
1641695,1310524,1197221
1641775,1310590,1196617
1641981,1311016,1196795
1642262,1310954,1196833
1642563,1310474,1196560
1642146,1309408,1196484
1641445,1309270,1196761
1641670,1309713,1198055
1641732,1310234,1197485
1641950,1310655,1196872
1641545,1311348,1197160
1641668,1311897,1197366
1641900,1312299,1197669
1642289,1312899,1198667
1642198,1313625,1200061
1642597,1314254,1200988
1642675,1314968,1203105
1642450,1315719,1204739
1642844,1316567,1206402
1643382,1317212,1209630
1643785,1318056,1212318
1643963,1318411,1213821
1644432,1319157,1215384
1644212,1319789,1217298
1644347,1321850,1219396
1644811,1323364,1218716
1644996,1324308,1218340
1645537,1324403,1218094
1645559,1324564,1218032
1645769,1324918,1217115
1645447,1325163,1215661
1645732,1325469,1214255
1646173,1325539,1213124
1646076,1325885,1213326
1646460,1327073,1213380
1645845,1327306,1213611
1644121,1323346,1213611
1642390,1316812,1213170
1638816,1311719,1213985
1638281,1311248,1215783
1638244,1310767,1216774
1637656,1310845,1216036
1637759,1311167,1214437
1637603,1311618,1212828
1639037,1312951,1210186
1638176,1314913,1208077
1640387,1317038,1205849
1639991,1318364,1204755
1641801,1318897,1202792
1640592,1319197,1201057
1640313,1318650,1199890
1639860,1318424,1199935
1639652,1317878,1200200
1639447,1318138,1201290
1640503,1317945,1200708
1639317,1318016,1201787
1638843,1318243,1202451
1638540,1317771,1203298
1639885,1317532,1206450
1639073,1318706,1208462
1640119,1320779,1209795
1640021,1323069,1210961
1640766,1324662,1212593
1640933,1325576,1214540
1641264,1326362,1216871
1641467,1326593,1218322
1641357,1327686,1217272
1641657,1328347,1218190
1642112,1329579,1216498
1642131,1329655,1216216
1643245,1330010,1216329
1643483,1330864,1215761
1644085,1331229,1215538
1644925,1331585,1216142
1644966,1330694,1217213
1644803,1330480,1218376
1644736,1328858,1218203
1643882,1327218,1218468
1642935,1322467,1219330
1641009,1319468,1220098
1640059,1317397,1222293
1639136,1314865,1225588
1638138,1313240,1229368
1637676,1311231,1231435
1636865,1310414,1234568
1636399,1309530,1236916
1636187,1309984,1239362
1636714,1311083,1241361
1637086,1312704,1243264
1637590,1313655,1245632
1638070,1314656,1247721
1638694,1314708,1248589
1638826,1315453,1247906
1638791,1315619,1247571
1638877,1316096,1247380
1638938,1316003,1246365
1639011,1316227,1245731
1639243,1315787,1245479
1639144,1315433,1245225
1638644,1313618,1244221
1637997,1313003,1244034
1638021,1312692,1244488
1638181,1313608,1244045
1638150,1314868,1244682
1638680,1316195,1245257
1638807,1316644,1244425
1639047,1317476,1245132
1639193,1317663,1244626
1639014,1318570,1244641
1639724,1318735,1244454
1640331,1320599,1242634
1640936,1321703,1241496
1641889,1322993,1240346
1642358,1324021,1238935
1642555,1324734,1237330
1642818,1325245,1236254
1642694,1325445,1236268
1642743,1325659,1235300
1643041,1326364,1235161
1642896,1326882,1234501
1642786,1327439,1233525
1642824,1327788,1232551
1643040,1327964,1232507
1643268,1328040,1232122
1643183,1328249,1230923
1642942,1327404,1230600
1642456,1326820,1230294
1641923,1325010,1231140
1641220,1323199,1230799
1640731,1320917,1230047
1639688,1318713,1229703
1638652,1316146,1229482
1637290,1314553,1229021
1636690,1312816,1228107
1635919,1312152,1227371
1635244,1311266,1226070
1635244,1311230,1224819
1634522,1311442,1222521
1634326,1311626,1220325
1634401,1312115,1217782
1634355,1312986,1215450
1634175,1313369,1212732
1634653,1315308,1208909
1634806,1316381,1207166
1635128,1316944,1204963
1635251,1317927,1201969
1635599,1318544,1195741
1635762,1319205,1192449
1635759,1319918,1190446
1636137,1320949,1186976
1636729,1321581,1185192
1636889,1322645,1184915
1637312,1323134,1183904
1637299,1323504,1184616
1637445,1323578,1185567
1637318,1323767,1189337
1637561,1323539,1192839
1636973,1323484,1196065
1636858,1322985,1198871
1636858,1322554,1201118
1636638,1321902,1202597
1636898,1321635,1204982
1636709,1321264,1206956
1636309,1320966,1209070
1636110,1321153,1209636
1635929,1321447,1209393
1636166,1322046,1209717
1636493,1322827,1209802
1636444,1323552,1208983
1636628,1324251,1208274
1636491,1324758,1208053
1636787,1325682,1206476
1637123,1326165,1204959
1637927,1326836,1203870
1638141,1327504,1204069
1638111,1328076,1203426
1638217,1328524,1203171
1638613,1329452,1202798
1638556,1330094,1201989
1639530,1331899,1201336
1639658,1333010,1200625
1640726,1333229,1199609
1640728,1333482,1199427
1640683,1334464,1198337
1640919,1334700,1198799
1641291,1335372,1198826
1641991,1336275,1199051
1642072,1336560,1198612
1643005,1336997,1199243
1642372,1334950,1199940
1639907,1328271,1201959
1637320,1325484,1201545
1637871,1322818,1201273
1636908,1320577,1200641
1636544,1317587,1200692
1634943,1315970,1200238
1632598,1315281,1201005
1633878,1315644,1202509
1634436,1315267,1203796
1633878,1316744,1204705
1634456,1316272,1206146
1634482,1316646,1206705
1635249,1318727,1207352
1636247,1320418,1208381
1636671,1322886,1209897
1637091,1324183,1210045
1637376,1324251,1211621
1637581,1324789,1212799
1636480,1325223,1212567
1637596,1325201,1211444
1637999,1324520,1212123
1637572,1323971,1212406
1637040,1322866,1214549
1636884,1322324,1215733
1637074,1323563,1216398
1637167,1325126,1217031
1637816,1327636,1217347
1638131,1329377,1217282
1638028,1329643,1217775
1638294,1330675,1217405
1640867,1331528,1219294
1639226,1332348,1219021
1639604,1333154,1218979
1639930,1334242,1217045
1642227,1334954,1218220
1640691,1335767,1217829
1640069,1336301,1218155
1640631,1338137,1218496
1641711,1338921,1220489
1642229,1340035,1221800
1642144,1340375,1222497
1642469,1341314,1223999
1642962,1341174,1223912
1642507,1342319,1224447
1642332,1342863,1225071
1642774,1342315,1224189
1642217,1341434,1223869
1639745,1335390,1223706
1636694,1327894,1224101
1634704,1323933,1223515
1634153,1323038,1224122
1633974,1324297,1224633
1634454,1325050,1225574
1634603,1326007,1225610
1634774,1326592,1226991
1634762,1327899,1228802
1634594,1328422,1229877
1634863,1329606,1230752
1635144,1330019,1230014
1635628,1331049,1229979
1635803,1331683,1230157
1636031,1332518,1228719
1636873,1333837,1229449
1636987,1334687,1229407
1636971,1333041,1228900
1636552,1330884,1228335
1636667,1330933,1229660
1636531,1330522,1230553
1636469,1330226,1232496
1636349,1330360,1232864
1636467,1330620,1233917
1636448,1331096,1234033
1636717,1331085,1233985
1636950,1331388,1234646
1637264,1331845,1234679
1637418,1332338,1234562
1637651,1332731,1235115
1637864,1333115,1235457
1638098,1333925,1236475
1638024,1334755,1238112
1638661,1335342,1238747
1639071,1336284,1239989
1639203,1336903,1241122
1639413,1337307,1240808
1639823,1338230,1240567
1639940,1338550,1239840
1640380,1339193,1239339
1640368,1339789,1239151
1640368,1339646,1240494
1640606,1340184,1240651
1641020,1340340,1241455
1641266,1340661,1240792
1641304,1340507,1241265
1641433,1340658,1241129
1641586,1341354,1241296
1642478,1341781,1241061
1642694,1341936,1240393
1642829,1342216,1240634
1642641,1342093,1240548
1642880,1342283,1240782
1643267,1342552,1240956
1643390,1342770,1241037
1643670,1342703,1241119
1643415,1342026,1241344
1642942,1340981,1242027
1642511,1339407,1242294
1642025,1337269,1243447
1640637,1335078,1244500
1639237,1332483,1245145
1639237,1329521,1245958
1638156,1326692,1246084
1637212,1324694,1245023
1636298,1323142,1244860
1635681,1321977,1243566
1635043,1321160,1243535
1633758,1321449,1242781
1633597,1321997,1242556
1634010,1322818,1243237
1633979,1323723,1242618
1633974,1324382,1242762
1633991,1325135,1242194
1634183,1326061,1242545
1634396,1327043,1243692
1634871,1328030,1242880
1635353,1328991,1243431
1635696,1329807,1243802
1636025,1330180,1243549
1635392,1331048,1242358
1636273,1331774,1241655
1636757,1332634,1239550
1636562,1333340,1237981
1636549,1333690,1236638
1636992,1333475,1234162
1637152,1333202,1233305
1636825,1332845,1232838
1636726,1332481,1232684
1636268,1332088,1232411
1635530,1331492,1231394
1636051,1330919,1231574
1636002,1330553,1230198
1635813,1330168,1230247
1635659,1329767,1229440
1635397,1329464,1229105
1635247,1329802,1229029
1635840,1330965,1229046
1636907,1332933,1229442
1637102,1334266,1229052
1637922,1335608,1229542
1638562,1336544,1228710
1638897,1336825,1229782
1639167,1337508,1229541
1639212,1337963,1231027
1639279,1338298,1230045
1639862,1338498,1230151
1639945,1338499,1230346
1640356,1339111,1230969
1640450,1339423,1231273
1640810,1339703,1231862
1640887,1340133,1231931
1641283,1340438,1232118
1641613,1341370,1232028
1642164,1341919,1231685
1641636,1339542,1232329
1639249,1332533,1233308
1638034,1329684,1233480
1636730,1327036,1234408
1634955,1324763,1235364
1633759,1322915,1237339
1633098,1321615,1238618
1633048,1320561,1240671
1632349,1319921,1242031
1631948,1319951,1245546
1631854,1319939,1247741
1631339,1319899,1249428
1631435,1320660,1250991
1631877,1321390,1252913
1632278,1322186,1253318
1632436,1323183,1253942
1632298,1323323,1253908
1632789,1323935,1253974
1633093,1324650,1253979
1633454,1325722,1252978
1633411,1326598,1253678
1633595,1328591,1253412
1633595,1328558,1253618
1633979,1328935,1253780
1634051,1329653,1253975
1634578,1330486,1253219
1634548,1330378,1254298
1634572,1332686,1255993
1634786,1330833,1255793
1634577,1330181,1256705
1634635,1329739,1256843
1634746,1328844,1256826
1634468,1330556,1256964
1634022,1327737,1257270
1633752,1326121,1257430
1633796,1326928,1258089
1634253,1327911,1258032
1634901,1329483,1257819
1635075,1330802,1258041
1635419,1331381,1257526
1635251,1332463,1256472
1635641,1332858,1256654
1635669,1334339,1255854
1636103,1334779,1255081
1636147,1335947,1254499
1636588,1335775,1253098
1636937,1336539,1251438
1637205,1337060,1251547
1637317,1337054,1250448
1637500,1337085,1250493
1637723,1337877,1250152
1638109,1337927,1249705
1638403,1338824,1249428
1638837,1338888,1249847
1638864,1339244,1250558
1638883,1339480,1249450
1639328,1340879,1248733
1639803,1341500,1248607
1640095,1342380,1248034
1640281,1342082,1248795
1640148,1341699,1248601
1640199,1340714,1249089
1639223,1339266,1249851
1638775,1333970,1251237
1636370,1330514,1252495
1635191,1324767,1254068
1632799,1322139,1255632
1630703,1316435,1256518
1630264,1316142,1257440
1630244,1317621,1259217
1630334,1319516,1259942
1630974,1320520,1258875
1631034,1321052,1258440
1631308,1321868,1257180
1631537,1322670,1255861
1631925,1324554,1255062
1632347,1325155,1254590
1632609,1326075,1254409
1632895,1326321,1254561
1633002,1326808,1255329
1633104,1326665,1255783
1632684,1326374,1256329
1632764,1326129,1257688
1632810,1325653,1257387
1632919,1324962,1257732
1632831,1324452,1257046
1632605,1323729,1256948
1632208,1323265,1257042
1632377,1323066,1256405
1631812,1322966,1255613
1631673,1323051,1255175
1631438,1323300,1255027
1631438,1323051,1256301
1631559,1323692,1255891
1631541,1323733,1256907
1632141,1324039,1256921
1632443,1324496,1257128
1632593,1325067,1256228
1632560,1326038,1256059
1632396,1326651,1255535
1633357,1327965,1255189
1633474,1328990,1254884
1634079,1331378,1254319
1635092,1333085,1253810
1636215,1334719,1254660
1636542,1336082,1254540
1636541,1337133,1255489
1637243,1337715,1255495
1637315,1338351,1256092
1637516,1338942,1255843
1637492,1339265,1255530
1638166,1339535,1255467
1638256,1339591,1255204
1638268,1339833,1255282
1638104,1339550,1255775
1637868,1338717,1255646
1637370,1337578,1256238
1636879,1336164,1257529
1636066,1333927,1258849
1635274,1331241,1259325
1634242,1328254,1259546
1633037,1325136,1260236
1629936,1318237,1260180
1628666,1315750,1259435
1628599,1316055,1259520
1628299,1316157,1257834
1628453,1316806,1255961
1626789,1317819,1254855
1628165,1318811,1254329
1628768,1320188,1253672
1629078,1320555,1252906
1629741,1322491,1252262
1630856,1324916,1250531
1631382,1325828,1249409
1631957,1325853,1247741
1631101,1323500,1245094
1631115,1321761,1243693
1630922,1320855,1241012
1629022,1320211,1240026
1630263,1320223,1238900
1630386,1320133,1237378
1630638,1321268,1236568
1631027,1320422,1235988
1631238,1320739,1235535
1629732,1320825,1234919
1631189,1321145,1234209
1631665,1321314,1234465
1632098,1322886,1234450
1632123,1322822,1234589
1632745,1323595,1233891
1631318,1324221,1233181
1632805,1324911,1233236
1633533,1325297,1233643
1633832,1326678,1233878
1633924,1326762,1233494
1634359,1327361,1234602
1632953,1327883,1234804
1632953,1328284,1234927
1633876,1328729,1234820
1634812,1329659,1235180
1635320,1329279,1235881
1635485,1328837,1237039
1635950,1329415,1237239
1634951,1329775,1237732
1636721,1330438,1237151
1636511,1330370,1236973
1636849,1330820,1237017
1637720,1330892,1236387
1637509,1330377,1237318
1635706,1324058,1237683
1632053,1315230,1239366
1630975,1313151,1240897
1630073,1310559,1242147
1629001,1308587,1243435
1628653,1306723,1243330
1628123,1306890,1244101
1627978,1306671,1245683
1627960,1307544,1246836
1628255,1307802,1247242
1629013,1310234,1248848
1629716,1311905,1249956
1630799,1315367,1252447
1631081,1317369,1254053
1631338,1318685,1255842
1631287,1319007,1257117
1631179,1318580,1257877
1631244,1318116,1258235
1630645,1316504,1259530
1630331,1316436,1259951
1630225,1315759,1260877
1629889,1315494,1263081
1629688,1315082,1264897
1629712,1315762,1265416
1630114,1317234,1269409
1630973,1319853,1269409
1631876,1321575,1270483
1632843,1323333,1270584
1633253,1324228,1270742
1633338,1324931,1271656
1633423,1325354,1272858
1633986,1326019,1273336
1633909,1326566,1274025
1633720,1327497,1275353
1634108,1327976,1276675
1634481,1328334,1277375
1634800,1328827,1278456
1634882,1329484,1278473
1635076,1329092,1279452
1635436,1329681,1279094
1635717,1329527,1278815
1635889,1329899,1278326
1636163,1329970,1277319
1636453,1331356,1276352
1635549,1329230,1276770
1632384,1322142,1277521
1631655,1319324,1278330
1630484,1316450,1278430
1629039,1311803,1279228
1627323,1310314,1279425
1626728,1308630,1278436
1626405,1308258,1277686
1626616,1308645,1275812
1627117,1309846,1274070
1628199,1311495,1273188
1628888,1312584,1271560
1629743,1313574,1270133
1630272,1314239,1267870
1630509,1313693,1267550
1630488,1313579,1266858
1630342,1312672,1266328
1630065,1311920,1265776
1630075,1310691,1265603
1629505,1310098,1266263
1628854,1308660,1267557
1628492,1309747,1268567
1629271,1312177,1270068
1629598,1314348,1271453
1630170,1315750,1273084
1630644,1316600,1275259
1631152,1317256,1275207
1631343,1317810,1275448
1631641,1319146,1275916
1631798,1319870,1276584
1632531,1320581,1277204
1632659,1321022,1277854
1633547,1322549,1278647
1634290,1323063,1278644
1634876,1323552,1279622
1635143,1324350,1281149
1634800,1324750,1282469
1635078,1324326,1283895
1634668,1322988,1285213
1633597,1320846,1285236
1632886,1318407,1285834
1631725,1312222,1285813
1628868,1309075,1285672
1627857,1306481,1285584
1626636,1304592,1286111
1625889,1302562,1286715
1624577,1301224,1287707
1624800,1300641,1288142
1624665,1300480,1288936
1624851,1300726,1289983
1624620,1301098,1291598
1624623,1301640,1293451
1624352,1302565,1294586
1624666,1303751,1296535
1624896,1304796,1298981
1624874,1306449,1300913
1624193,1307473,1302970
1624193,1308376,1305509
1624708,1309506,1307484
1624770,1311019,1310251
1625234,1312011,1311924
1625949,1313352,1314009
1625746,1314298,1315904
1626496,1315225,1318091
1626805,1315414,1318986
1626666,1315562,1321101
1626496,1315631,1322227
1626531,1315478,1322970
1626151,1315098,1323621
1627823,1314667,1323603
1626199,1314335,1323533
1625648,1314336,1323674
1625329,1314089,1323943
1625078,1313942,1323401
1625171,1314762,1323233
1624823,1316045,1324231
1627118,1317363,1325155
1625823,1318441,1325546
1626019,1319081,1326564
1625914,1320225,1327374
1626032,1321123,1327400
1627885,1321793,1328077
1627168,1322626,1327754
1626804,1323512,1328033
1627094,1324375,1328642
1627189,1324855,1328332
1627262,1325520,1328215
1629384,1326208,1328123
1628257,1326561,1325748
1628728,1327471,1323507
1629010,1327179,1321357
1629112,1327262,1319636
1629449,1327477,1315938
1631383,1327625,1314119
1630410,1328146,1313839
1629995,1329101,1313485
1629991,1329010,1312944
1629991,1328885,1312672
1629878,1328959,1312686
1630246,1328872,1312382
1631989,1328846,1313476
1630754,1329053,1313253
1631331,1328704,1313488
1631140,1328618,1314319
1630430,1328181,1314565
1631911,1326735,1315581
1630032,1324954,1316243
1628994,1322836,1317728
1627906,1319933,1318904
1626740,1316203,1320234
1623879,1307990,1321236
1621375,1303988,1322812
1620944,1303828,1324090
1621245,1304859,1324692
1621538,1305773,1326277
1621625,1305816,1326450
1621533,1306907,1326191
1621431,1307432,1326914
1621748,1308596,1328111
1621721,1309334,1329224
1622161,1310892,1329555
1622216,1311875,1330989
1622382,1314237,1334142
1622220,1315538,1336526
1621755,1315192,1337563
1621365,1314332,1337279
1620801,1314198,1338823
1620776,1315103,1339945
1620818,1315234,1339913
1620600,1316092,1339913
1620706,1317161,1340362
1621113,1318209,1341652
1621563,1319661,1342569
1621685,1320750,1343476
1622068,1322715,1344283
1622685,1325293,1344375
1623420,1326916,1344291
1624301,1327967,1344038
1624558,1328844,1343938
1624705,1329813,1344954
1624766,1329754,1344636
1625063,1330378,1344072
1624975,1331208,1343797
1624821,1331499,1343214
1624751,1331328,1342849
1625211,1330275,1341761
1623997,1329330,1340807
1623355,1327496,1340158
1622438,1324889,1337925
1621515,1322187,1336237
1617963,1314795,1333698
1616207,1311534,1332717
1615634,1311697,1332129
1615593,1312909,1331171
1615603,1314188,1331361
1615679,1314702,1330287
1615520,1316152,1329537
1615744,1317194,1328017
1616635,1318651,1326503
1616979,1319329,1323874
1617552,1321349,1321047
1617993,1321642,1317941
1617895,1321264,1314014
1617398,1320013,1310447
1616625,1319556,1307348
1616598,1319986,1302922
1616394,1320015,1299593
1616915,1320580,1295706
1616877,1321188,1293152
1616951,1322470,1290648
1616982,1322860,1287948
1617117,1323672,1285268
1617377,1324423,1284032
1617722,1324897,1280842
1617926,1325359,1279691
1617938,1326165,1278474
