GREEN,RED,IR
1407606,1436341,1855430
1407452,1435885,1855236
1407221,1435824,1854559
1407141,1436117,1854259
1406750,1436236,1856167
1406696,1436158,1854503
1406634,1436069,1854975
1406452,1436050,1854042
1406453,1435928,1853050
1406190,1435799,1854257
1406046,1435434,1853432
1405884,1435494,1854427
1405951,1435622,1854735
1406022,1435929,1856561
1406073,1436092,1854802
1406084,1436198,1854090
1405909,1435906,1853772
1405929,1435973,1854004
1405389,1436061,1855084
1405494,1436313,1855400
1405598,1436287,1854900
1405664,1436452,1854381
1405467,1436783,1853734
1405498,1437013,1854341
1405331,1437125,1854703
1405412,1437353,1854051
1405308,1437482,1853796
1405532,1438063,1854166
1405356,1437993,1855009
1405523,1437469,1853819
1405374,1437188,1854506
1405544,1437000,1853687
1405458,1436923,1855186
1405831,1436569,1854475
1405783,1436362,1854359
1405588,1436114,1854208
1405458,1436220,1853829
1405662,1437379,1852588
1405459,1437655,1853519
1405706,1437186,1853313
1405706,1436517,1853192
1405422,1436210,1852765
1405579,1436682,1852401
1405520,1437120,1853639
1405617,1437527,1854810
1405333,1437266,1853994
1405519,1437214,1852607
1405672,1437854,1853542
1405815,1437766,1852651
1405649,1437818,1853538
1405762,1437671,1851960
1405577,1438068,1851453
1406207,1438467,1852837
1406137,1438221,1853469
1405905,1438131,1852505
1405948,1438090,1852775
1405967,1437647,1852194
1405469,1437351,1852570
1405539,1437028,1851876
1405147,1437268,1851444
1404933,1436835,1851664
1404813,1436988,1852511
1404656,1436626,1853625
1404492,1436426,1851456
1404453,1436363,1851442
1404915,1436069,1852535
1404122,1435868,1852228
1404117,1435941,1852500
1403776,1436087,1852249
1403773,1436000,1851237
1404015,1435914,1851355
1403580,1435875,1853079
1403244,1436174,1854059
1403457,1435703,1853561
1403457,1435578,1853194
1403534,1435730,1854241
1402808,1435259,1852869
1402808,1434569,1853733
1402802,1433700,1854321
1402457,1431490,1853047
1402329,1428749,1852336
1402562,1425871,1851836
1402143,1423806,1853510
1402564,1415765,1850123
1402945,1411407,1850075
1403257,1407034,1850661
1403372,1403026,1851245
1403416,1399298,1851611
1403591,1395939,1851698
1403493,1393199,1851344
1403798,1390355,1851424
1404098,1387529,1852034
1404614,1384411,1852090
1404972,1378873,1852805
1405329,1370944,1852205
1406149,1360589,1852307
1406514,1346177,1850846
1406997,1319869,1851733
1407168,1294178,1851871
1407244,1277756,1852543
1407244,1270737,1852010
1407640,1268286,1851059
1407915,1261749,1851036
1408218,1249877,1850270
1408416,1234511,1849565
1408640,1218724,1849190
1409286,1211097,1850491
1409149,1211593,1850303
1408984,1212735,1849870
1409048,1211813,1850556
1408955,1207032,1852256
1408743,1199819,1850881
1408854,1193763,1851178
1408717,1187723,1850660
1408758,1183424,1852545
1408381,1183145,1850986
1408233,1186349,1851242
1407905,1191914,1850525
1407310,1197750,1850213
1406946,1204687,1850249
1406511,1210950,1850317
1405610,1217057,1851057
1405610,1222075,1850097
1404981,1227143,1850709
1404271,1232704,1853186
1403879,1238475,1851253
1403134,1243871,1848646
1402203,1249089,1849902
1401300,1254514,1850426
1399166,1264454,1850510
1398231,1268589,1850458
1397367,1273538,1851079
1397000,1277755,1850199
1396045,1281073,1848813
1395505,1283265,1849358
1395040,1285841,1848875
1394523,1287835,1849265
1394422,1289894,1851720
1394285,1291617,1850234
1393719,1294115,1851397
1393434,1295512,1851150
1392880,1297792,1850930
1392773,1300094,1850534
1392152,1303654,1850779
1391598,1306278,1851368
1391598,1308677,1851107
1391233,1310533,1851095
1390966,1312109,1851685
1390828,1313437,1851926
1390753,1314922,1851166
1390640,1315072,1851976
1390367,1316104,1850746
1390015,1318758,1851473
1390003,1320835,1850965
1389831,1322763,1851089
1389580,1324710,1850716
1389489,1326582,1851397
1389232,1327757,1851909
1389148,1329239,1851726
1389206,1330323,1850881
1389427,1331474,1850876
1389466,1332244,1851606
1389395,1333112,1851632
1389328,1333516,1850498
1388880,1334656,1851698
1388941,1335834,1851946
1388875,1337487,1852761
1388454,1339181,1852519
1388454,1340549,1852805
1388327,1341768,1854842
1388549,1342994,1854096
1388445,1344356,1854729
1388479,1345294,1853570
1388475,1345566,1852807
1388304,1346464,1853275
1388550,1347591,1853608
1388489,1348276,1852654
1388369,1349790,1853691
1388287,1352831,1853007
1387856,1357510,1853010
1387676,1362105,1853773
1387253,1367408,1854030
1386903,1372093,1855006
1386729,1376612,1854885
1386741,1380362,1854889
1386550,1383063,1854484
1386980,1385156,1854925
1386818,1386485,1855917
1386910,1387049,1856147
1387077,1387869,1855149
1387274,1388798,1855880
1387629,1389627,1855984
1388021,1389460,1855838
1387850,1389985,1857757
1388002,1390316,1858153
1388146,1391134,1856667
1388077,1391539,1858188
1388292,1392040,1858110
1388587,1392586,1857504
1388634,1392995,1858383
1388727,1393366,1858195
1388919,1393340,1858722
1388958,1393183,1860663
1389061,1393642,1859950
1389291,1393523,1859834
1389633,1393770,1860168
1389819,1393789,1861086
1389990,1393941,1860316
1390178,1394000,1860466
1390260,1394433,1862471
1390627,1394118,1862343
1390766,1394404,1861917
1390729,1394683,1862136
1390729,1394795,1863018
1390624,1394706,1862603
1390967,1394796,1864425
1391116,1394152,1861999
1391320,1393775,1862962
1391221,1393101,1864378
1391115,1393054,1864499
1390998,1393873,1862767
1390861,1395047,1864343
1390506,1395965,1864018
1390234,1397347,1865263
1390093,1398098,1864912
1389881,1398940,1864085
1389814,1399991,1864398
1389837,1401370,1865319
1389758,1403308,1864450
1389740,1405017,1866061
1389601,1406987,1866323
1389512,1408925,1866260
1389894,1413288,1865466
1390090,1414754,1864114
1390279,1415186,1865379
1390301,1415244,1865180
1390394,1415012,1865594
1390714,1414959,1863819
1390590,1414299,1863686
1390180,1413944,1863570
1390354,1413517,1863817
1390798,1413454,1863794
1390748,1413447,1865726
1390809,1413879,1864100
1390644,1413694,1864447
1390624,1413928,1865375
1390734,1415307,1864101
1391149,1416882,1865210
1391299,1419310,1863182
1391221,1422362,1864592
1391508,1422741,1865933
1391695,1423119,1865451
1391810,1423304,1867573
1391943,1423896,1867878
1391779,1423909,1870281
1392025,1423743,1869814
1392249,1423627,1871008
1392403,1423333,1871051
1392578,1422887,1871206
1392721,1423314,1872212
1392688,1422998,1870736
1392864,1423418,1872257
1392868,1423521,1871602
1393161,1423566,1871044
1393171,1423269,1872992
1393387,1423189,1872522
1393451,1422520,1872887
1393533,1422487,1871647
1393715,1422539,1873333
1393885,1422801,1872394
1393693,1423239,1872108
1393830,1423594,1872205
1393866,1424004,1871830
1394166,1424088,1871142
1394968,1423920,1871436
1394396,1424225,1870660
1394125,1424423,1869772
1394399,1424195,1870294
1394395,1424574,1873301
1394862,1424814,1868887
1394823,1424904,1868804
1394676,1425150,1869217
1394882,1423885,1868910
1394993,1423941,1869063
1395928,1423991,1869378
1395542,1424094,1869748
1395577,1424545,1868601
1395831,1424331,1871614
1395623,1424097,1871214
1395624,1424313,1869233
1395935,1424227,1869873
1396178,1424721,1868675
1396138,1425537,1868572
1396001,1426336,1869925
1396001,1428054,1870139
1397055,1429796,1870884
1396579,1431893,1871459
1396731,1433665,1871468
1396943,1435152,1870530
1396980,1436308,1870482
1397832,1438785,1870503
1397792,1438969,1869582
1398076,1439228,1868493
1398431,1439460,1868877
1398130,1439027,1871103
1398154,1438515,1870996
1397969,1437648,1870514
1398046,1436796,1870819
1398208,1436492,1869119
1398214,1436515,1869055
1398022,1436268,1870527
1397755,1436180,1870257
1397819,1436444,1870944
1397342,1436665,1870817
1397483,1437171,1870467
1397192,1437846,1871502
1397097,1438423,1871086
1397097,1439015,1871069
1397046,1439479,1870090
1397073,1439790,1869464
1396945,1440421,1870908
1396885,1440425,1870973
1396715,1441066,1870564
1396549,1442635,1870267
1396575,1443168,1870694
1396500,1443186,1870636
1396405,1443431,1871303
1396358,1443413,1870442
1396216,1443135,1872008
1396278,1442850,1871245
1396422,1442625,1871423
1396295,1441944,1871091
1396365,1440733,1871261
1396459,1440840,1870358
1395980,1441572,1869941
1396195,1441980,1869640
1396208,1442400,1871520
1396121,1443311,1871558
1395748,1444099,1871301
1395900,1444792,1870738
1396129,1445320,1870794
1396255,1445754,1870305
1396059,1446123,1870437
1396285,1445510,1869732
1395939,1446211,1870614
1396322,1447264,1871133
1396565,1447597,1872046
1396796,1448113,1869984
1396925,1448422,1869943
1397013,1448632,1871427
1397003,1448872,1870201
1396970,1449464,1870214
1397237,1449740,1873527
1397173,1450466,1872155
1397012,1450812,1874271
1396993,1451150,1872223
1397207,1451367,1871909
1397706,1451418,1870683
1397857,1451434,1872204
1397879,1451485,1870757
1397743,1451387,1870476
1398203,1451746,1870947
1398044,1452040,1871210
1398091,1452489,1870277
1398225,1452388,1869989
1398263,1452626,1870539
1398354,1453077,1870744
1398604,1453739,1869913
1398943,1454237,1870913
1399159,1454829,1868867
1399363,1455505,1870546
1399141,1455998,1871748
1399367,1456825,1871266
1399609,1457094,1870617
1399483,1457592,1869368
1399503,1457990,1870735
1399503,1458150,1870901
1399787,1457958,1870973
1399806,1458035,1871098
1400031,1457633,1870668
1400370,1457404,1870456
1400653,1457342,1869424
1400600,1457654,1869833
1400529,1457828,1871000
1400757,1458049,1870906
1400814,1458273,1871595
1401073,1458786,1869737
1401328,1459226,1870899
1401329,1459187,1868884
1401458,1459529,1871350
1401584,1459669,1870702
1401762,1459913,1871595
1401948,1460209,1871505
1402177,1459958,1872264
1402312,1459773,1872947
1402511,1459785,1871357
1402537,1459890,1870529
1402800,1459897,1871410
1402631,1460149,1870084
1402402,1460055,1871662
1402402,1460152,1871132
1402482,1459839,1871382
1402596,1459828,1873318
1402607,1459763,1870972
1402624,1459285,1871714
1402623,1458758,1871429
1402653,1458805,1870830
1402272,1458840,1872322
1402424,1458814,1872195
1402430,1458843,1872886
1402514,1458149,1871742
1402126,1458051,1872295
1402127,1458326,1873065
1402007,1458554,1872504
1402086,1458738,1871293
1402042,1458926,1871970
1401958,1459000,1870392
1402101,1458880,1871791
1401867,1459431,1871757
1401846,1459551,1871995
1401724,1460269,1871742
1401509,1460550,1872347
1401453,1460674,1872316
1401453,1460775,1872658
1401622,1461192,1872716
1401717,1461253,1872025
1401521,1461181,1871699
1401666,1460765,1872869
1401459,1460392,1872526
1401399,1460229,1873072
1401402,1459893,1873087
1401285,1459691,1871419
1401114,1459665,1872415
1401277,1459336,1873426
1400990,1459211,1873269
1401136,1459562,1873491
1401208,1459665,1873528
1401363,1460014,1874426
1401193,1460061,1873805
1401429,1460162,1874160
1401082,1460336,1874428
1401010,1460959,1873686
1401240,1461042,1874203
1401147,1461298,1874846
1400750,1461440,1874234
1400750,1461581,1875480
1400950,1461489,1875452
1400691,1461527,1873573
1401027,1461757,1874422
1400945,1461407,1876445
1401002,1461399,1876361
1400848,1461782,1874050
1401013,1462274,1875736
1400851,1462742,1874298
1401126,1463224,1874400
1401038,1463455,1875852
1401070,1463357,1874979
1400994,1463789,1874202
1400916,1464078,1873480
1401174,1464518,1873550
1401511,1465158,1874813
1401407,1465673,1875656
1401407,1466233,1873574
1401559,1467133,1872032
1401585,1467952,1873524
1401705,1469115,1873911
1401780,1470579,1873369
1401570,1471839,1874807
1401570,1473083,1875180
1401550,1474544,1874857
1401921,1475870,1874222
1402154,1476876,1873692
1401897,1477733,1873914
1402150,1478273,1873483
1402194,1478928,1875900
1402335,1479203,1874749
1402299,1479644,1874679
1402680,1479689,1874298
1402678,1479696,1874990
1402738,1479580,1874921
1402741,1480037,1875333
1403038,1480005,1874208
1402684,1480362,1874354
1403302,1480373,1875592
1403462,1480345,1873679
1403712,1480223,1875263
1403719,1480417,1876097
1403836,1480262,1875011
1403820,1480496,1874890
1403918,1480568,1874781
1403918,1480188,1873987
1403777,1479916,1874910
1403863,1479901,1874572
1403884,1479661,1874981
1404131,1479626,1874636
1404200,1479619,1875071
1404309,1479248,1875842
1404495,1479382,1874753
1404311,1478923,1876837
1404295,1478715,1876230
1404398,1478473,1875921
1403780,1478148,1876473
1403943,1477796,1873907
1404186,1477923,1874834
1404266,1478297,1874947
1404654,1478395,1875685
1404354,1478436,1875196
1404580,1478404,1876014
1404597,1478285,1875836
1404420,1478429,1874431
1404499,1478320,1875213
1403576,1478193,1875060
1403705,1477619,1874472
1403705,1477290,1874785
1403540,1476087,1874135
1403769,1475368,1875278
1403828,1475099,1878277
1403512,1474654,1876405
1403480,1474562,1875135
1403613,1474393,1876304
1403152,1474541,1874593
1403460,1474629,1876462
1403528,1474605,1875465
1403640,1474477,1875944
1403348,1474090,1875444
1403164,1473947,1875788
1403396,1473896,1878137
1403563,1473668,1876568
1403596,1473426,1876277
1403536,1473450,1876400
1402943,1472672,1875139
1403184,1472630,1876338
1403387,1472355,1874605
1403318,1472412,1876080
1402981,1472415,1876407
1402981,1472263,1876836
1402948,1472172,1875473
1403058,1472534,1875282
1402995,1472736,1874220
1403177,1472581,1875128
1402985,1472433,1875358
1402864,1472639,1875005
1403032,1472952,1876356
1402991,1472764,1875093
1402990,1472512,1876265
1402743,1472065,1875675
1402883,1471291,1875670
1402775,1471336,1876767
1402810,1471157,1876760
1402148,1471028,1877374
1402891,1471165,1876866
1403017,1471284,1878285
1403082,1471145,1877126
1402828,1471305,1876127
1402999,1471287,1874944
1403192,1471521,1874909
1402978,1471777,1875160
1402978,1471661,1875154
1402855,1471863,1878270
1402768,1471643,1875331
1402379,1471754,1875718
1402849,1471664,1874393
1402992,1471288,1874681
1402954,1471310,1872951
1402947,1471269,1872776
1402856,1471429,1871633
1402997,1471697,1873430
1403077,1471990,1872472
1402947,1471624,1876299
1402819,1470737,1873846
1403085,1471414,1872753
1403104,1471444,1872908
1403212,1471507,1871883
1403271,1471107,1870529
1403191,1470562,1871656
1403141,1470006,1870768
1403329,1469997,1871151
1403434,1469530,1871659
1403293,1469729,1871480
1403043,1469849,1871411
1403043,1469700,1870511
1403139,1469636,1870671
1403232,1469883,1869006
1403331,1469425,1869145
1403232,1468772,1869267
1403274,1468126,1870535
1403193,1467431,1869356
1403255,1467137,1870394
1403199,1466275,1871380
1403295,1465953,1871597
1403002,1464970,1869531
1402626,1464073,1869330
1402564,1463511,1868936
1402497,1463286,1868651
1402340,1462722,1870136
1402356,1462578,1869398
1402133,1462455,1868397
1402040,1462125,1868491
1401767,1462003,1867220
1401426,1462540,1867892
1400768,1462672,1868029
1400397,1463112,1868953
1400397,1463031,1869920
1400684,1462863,1869991
1400214,1463587,1870637
1399855,1463670,1868437
1399817,1464072,1870348
1399830,1464145,1869706
1399747,1464771,1869331
1399790,1464959,1868872
1399723,1465071,1869003
1399466,1465116,1870364
1399697,1465368,1870272
1399608,1465658,1869756
1399671,1465830,1869568
1399671,1465751,1867959
1399594,1465920,1869677
1399384,1466072,1870815
1399250,1466295,1870721
1399449,1466453,1870741
1399258,1466988,1869823
1398833,1466946,1870076
1398833,1466822,1869927
1398794,1467072,1870301
1398793,1467115,1869723
1398898,1467148,1870983
1398828,1467093,1867593
1398646,1467087,1866997
1398818,1467602,1866896
1398580,1468058,1867255
1398624,1468025,1864960
1398674,1468182,1864820
1398636,1468026,1867544
1398619,1467992,1866595
1398639,1468008,1867378
1398512,1468353,1869173
1399004,1468820,1868595
1399181,1468906,1869950
1399127,1469261,1869131
1399226,1469123,1869618
1399269,1469208,1870299
1399333,1469574,1868968
1399405,1469824,1869214
1399010,1469826,1870140
1399010,1469655,1870669
1399092,1469542,1868863
1399069,1469439,1869446
1399198,1469340,1869173
1399304,1469234,1869888
1399332,1468899,1868144
1399332,1468715,1868980
1399434,1469091,1868456
1399378,1468742,1867941
1399354,1468615,1866861
1399351,1468434,1867285
1399462,1468161,1866604
1399303,1467724,1867433
1399284,1467513,1866732
1399399,1467393,1865990
1399669,1467191,1864860
1399623,1466988,1866132
1399650,1466484,1865199
1399414,1466048,1865042
1399485,1466211,1864391
1399416,1466029,1864929
1399465,1466417,1864772
1399140,1466348,1863362
1399140,1466378,1863745
1399412,1466409,1863588
1399382,1466582,1865443
1399422,1466395,1864817
1399409,1465914,1864569
1399596,1465759,1865174
1399677,1465813,1865667
1399723,1465803,1865650
1399700,1465785,1865699
1399726,1465899,1865301
1399764,1465907,1864254
1399637,1465540,1864858
1399578,1465578,1866395
1399530,1465084,1868413
1399648,1464929,1866921
1399783,1464599,1866573
1399632,1464532,1866509
1399705,1464001,1865333
1399357,1463753,1866342
1399286,1463668,1865060
1399261,1463837,1865705
1398950,1463718,1864825
1398733,1463546,1866171
1398733,1463245,1864859
1398722,1463045,1865850
1398635,1463383,1866547
1398717,1463360,1864517
1398432,1462910,1865418
1398207,1463065,1866082
1397924,1463356,1865067
1398058,1464101,1866321
1397895,1463781,1865975
1398044,1463849,1865831
1398562,1463749,1864856
1397961,1463776,1865165
1397994,1464096,1864406
1398055,1463810,1863971
1398269,1463941,1864632
1398514,1463128,1865291
1398438,1462497,1866068
1398217,1462102,1865046
1398082,1461681,1865205
1398435,1461144,1866709
1398246,1461118,1866720
1398093,1460913,1867573
1398093,1461023,1867627
1397866,1460802,1867685
1397979,1461033,1868365
1398052,1461128,1868989
1398086,1461022,1867919
1398137,1461421,1866882
1397773,1461474,1868053
1397724,1461230,1868323
1398310,1461365,1867288
1398031,1461672,1867067
1397731,1462524,1867883
1397921,1462766,1867658
1397853,1462834,1867145
1398120,1463595,1868989
1398033,1463959,1867775
1398254,1464596,1869969
1398545,1464523,1868816
1398593,1464550,1869732
1398888,1464820,1868910
1398562,1465095,1872225
1398793,1465376,1868896
1399014,1465521,1869308
1398707,1465781,1868691
1398707,1465646,1868719
1398686,1465412,1869924
1398724,1465349,1869206
1399075,1465475,1868821
1399031,1465164,1869359
1399003,1465109,1869397
1399094,1464819,1870294
1398991,1465335,1869385
1399133,1465176,1868253
1399207,1464989,1868345
1399431,1465069,1868561
1399457,1464928,1868580
1399605,1464715,1868774
1399690,1465288,1867590
1400033,1465973,1867312
1400164,1466820,1866990
1399998,1466891,1867264
1400172,1467574,1867160
1400502,1467717,1866317
1400542,1468105,1865631
1400714,1468556,1865973
1400433,1468900,1867200
1400638,1468923,1866803
1400744,1469339,1867843
1400849,1469889,1867473
1400850,1469807,1867812
1400832,1469755,1867266
1400914,1470014,1868277
1401025,1470464,1868263
1401226,1470596,1869808
1401628,1470906,1867147
1401604,1471115,1868535
1401391,1470844,1866501
1401455,1470895,1866012
1401652,1470593,1866833
1401702,1470269,1865539
1401378,1470181,1863591
1401185,1468896,1863894
1401185,1468110,1863176
1400958,1466985,1863358
1400954,1466445,1861794
1400872,1465630,1861363
1400796,1464898,1863085
1400625,1464519,1863803
1400238,1464359,1863807
1399974,1464570,1863721
1399650,1465045,1863620
1399917,1465254,1863909
1399884,1465041,1865191
1399555,1464832,1865634
1399482,1465256,1865426
1399453,1465959,1864408
1399395,1466841,1864564
1399651,1469251,1863724
1399151,1471444,1863266
1399139,1473252,1864186
1398995,1473888,1863665
1399126,1474053,1863451
1399116,1474671,1863730
1399051,1474993,1864562
1398893,1475758,1864491
1398674,1476106,1865899
1398741,1476710,1864003
1398858,1477172,1864382
1398765,1478056,1864036
1398855,1478813,1865375
1398917,1479536,1864576
1399266,1480422,1864650
1399131,1480823,1863710
1399234,1481926,1864490
1399230,1482340,1863896
1399445,1482281,1864821
1399380,1482558,1864575
1399276,1483018,1866549
1399224,1483029,1866129
1399573,1483571,1866173
1399483,1483666,1866518
1399627,1484028,1865479
1399483,1484245,1864695
1399538,1484148,1864591
1399604,1484420,1864735
1399802,1484961,1865245
1400024,1485934,1864864
1400350,1486878,1865176
1400347,1487812,1865844
1400391,1488571,1864918
1400226,1489513,1863716
1400636,1491845,1863675
1400325,1492369,1864620
1400334,1493063,1864851
1400267,1493473,1864005
1400526,1493419,1863793
1400184,1494037,1864441
1399842,1494327,1864392
1399939,1494284,1865437
1400048,1494432,1864929
1400130,1494586,1863775
1400098,1494629,1864287
1400313,1494711,1865166
1400189,1494552,1865096
1400160,1494462,1865563
1400305,1494342,1866138
1400349,1494055,1866202
1400502,1493515,1865337
1400229,1492994,1866091
1400448,1492408,1865281
1400198,1491871,1865004
1400239,1491331,1864296
1399850,1491183,1864575
1399781,1491007,1865330
1399781,1490790,1865579
1399903,1490859,1865191
1399995,1491309,1866096
1399899,1491630,1866498
1399752,1491665,1866105
1399739,1491599,1865182
1399654,1492127,1863913
1399509,1492527,1867030
1399501,1492385,1866833
1399551,1492870,1867245
1399630,1492819,1866057
1399706,1493037,1866442
1399530,1493449,1866276
1399670,1493965,1866368
1399867,1494285,1865982
1400008,1494607,1866775
1400132,1495218,1867516
1400122,1495717,1867961
1400467,1496195,1868237
1400393,1497008,1868145
1400393,1497503,1868933
1400423,1498017,1868806
1400059,1498186,1869614
1400059,1498184,1869725
1400250,1498228,1869761
1400288,1498128,1870485
1400274,1498467,1869139
1400402,1498194,1868535
1400470,1498094,1870488
1400154,1498296,1868252
1400272,1498348,1870054
1400196,1498165,1869738
1400275,1498141,1868576
1400503,1498105,1869556
1400366,1497628,1869421
1400174,1497802,1869818
1400428,1497175,1868055
1400634,1496695,1867538
1400543,1495977,1868720
1400532,1495343,1868204
1400614,1495826,1870855
1400793,1495973,1870800
1400747,1495520,1869240
1400582,1495466,1870183
1400972,1495291,1868899
1400582,1494982,1869489
1400436,1495038,1870092
1400383,1494908,1870915
1400410,1494388,1870923
1400343,1493641,1870656
1400120,1492941,1870720
1400242,1493460,1869399
1400165,1492365,1869342
1400205,1491927,1870781
1400320,1491734,1870517
1400389,1491027,1870343
1400069,1491028,1868481
1400138,1491079,1869723
1400642,1490826,1871351
1400363,1490717,1869955
1400216,1490930,1869122
1399948,1490563,1869286
1400095,1490213,1868628
1399904,1490071,1866779
1399697,1490650,1869336
1399684,1490402,1868984
1399477,1489867,1867408
1400041,1489858,1868522
1399379,1489909,1868305
1399326,1490083,1868561
1399502,1489808,1869063
1399460,1489823,1868866
1399300,1489448,1869421
1399108,1489556,1870906
1399175,1490688,1869871
1399233,1490337,1869100
1398913,1490434,1868961
1398913,1490163,1868572
1399488,1489992,1869099
1398863,1490316,1871018
1398810,1490427,1872370
1398611,1489934,1871589
1398551,1489858,1870176
1398891,1489810,1870493
1398576,1490416,1870024
1398392,1489603,1869189
1398356,1489297,1868553
1399173,1489153,1869411
1398527,1488621,1868659
1398386,1488083,1869068
1397962,1487540,1870154
1397823,1487537,1870372
1397792,1487230,1871657
1397964,1487130,1868599
1397764,1487437,1869762
1397799,1486497,1869362
1397640,1486158,1869845
1398329,1485947,1871137
1397660,1486087,1871685
1397184,1486451,1870116
1396996,1486136,1868907
1396996,1485796,1871625
1396929,1485631,1874389
1396818,1485406,1872100
1397034,1485995,1870610
1396673,1485142,1868771
1396630,1484852,1869981
1396730,1484892,1871881
1396546,1485257,1872416
1396465,1485316,1871682
1396599,1485633,1870768
1396720,1485542,1870982
1396363,1485207,1869138
1396290,1485712,1869266
1396381,1485327,1871389
1396421,1485352,1871426
1396456,1485531,1871622
1396300,1485625,1871625
1396449,1485595,1871585
1396311,1485670,1870910
1396478,1485936,1868804
1396178,1486047,1870795
1395975,1486181,1870688
1395975,1485840,1870862
1396023,1485496,1869226
1396196,1485461,1870640
1396080,1485283,1871378
1396124,1484952,1870545
1396129,1484400,1870795
1396157,1484308,1873007
1395899,1484051,1871629
1395877,1484327,1870600
1395887,1484461,1870392
1395700,1484126,1871303
1395795,1483815,1872445
1395744,1483590,1871848
1395846,1483972,1870825
1395899,1484035,1870223
1395957,1484173,1870189
1396114,1483804,1872967
1395777,1483530,1869300
1395950,1483476,1869032
1395739,1483250,1869713
1395996,1482961,1871605
1395678,1483029,1874423
1395237,1482888,1872838
1395237,1482566,1870903
1395130,1481794,1870306
1395042,1481844,1871503
1394996,1481537,1869618
1394712,1480807,1872002
1394468,1480131,1869689
1393922,1479770,1871322
1393433,1479961,1872128
1393374,1479190,1870851
1393288,1479282,1871168
1393009,1479355,1871422
1392663,1479124,1871778
1392423,1479155,1869984
1392454,1479041,1870677
1392271,1478826,1868890
1392460,1478613,1869416
1392335,1478688,1869708
1392149,1478392,1870342
1391907,1478257,1868088
1391664,1478384,1870145
1391664,1478393,1869107
1391239,1478461,1869986
1391239,1478203,1869392
1391053,1478056,1869798
1390942,1477848,1868943
1391106,1477908,1869704
1390903,1477369,1869832
1390776,1476891,1870558
1390491,1476495,1868371
1390009,1476018,1868304
1389756,1475868,1869341
1389634,1476206,1868284
1389572,1476026,1868940
1389552,1475474,1868661
1389240,1475166,1869444
1389063,1475202,1869130
1388933,1474946,1868879
1389095,1474756,1867400
1388955,1474457,1867792
1388770,1474129,1865021
1388432,1473745,1867837
1388597,1473895,1866843
1388444,1473770,1867869
1388225,1474227,1867617
1387989,1474374,1866446
1387989,1474157,1866934
1387770,1473953,1870490
1387824,1473730,1868028
1387947,1473947,1868920
1387751,1473439,1867927
1387669,1473077,1869504
1387298,1473125,1867926
1387238,1473030,1868680
1387278,1473372,1868675
1387289,1473664,1869173
1387049,1473646,1869666
1386960,1473753,1870872
1386985,1474068,1872893
1387104,1473998,1871218
1387059,1473905,1870839
1387330,1474186,1868202
1387103,1474223,1869047
1387013,1473939,1870678
1386672,1474214,1870386
1386765,1474538,1870233
1386992,1474446,1870365
1386902,1474816,1871365
1386902,1474510,1871093
1386670,1474522,1872701
1386792,1474366,1871274
1386838,1474483,1870692
1387064,1474324,1869881
1387078,1473944,1870667
1386819,1473974,1871248
1386752,1473870,1871079
1386671,1473750,1870394
1386689,1473537,1870394
1386628,1473249,1869925
1386665,1473103,1869964
1386484,1472388,1870541
1386371,1471940,1869338
1386315,1472009,1869864
1386405,1471807,1870380
1386414,1471873,1870432
1386446,1471870,1871232
1386053,1471664,1871340
1385888,1471436,1871515
1385973,1471518,1869137
1386092,1471753,1867909
1385304,1472031,1867740
1384973,1471927,1867369
1384973,1472046,1867410
1384961,1471909,1867690
1384784,1471981,1866608
1384742,1472019,1865433
1384564,1471934,1864633
1384579,1471601,1865378
1384258,1471970,1865961
1384294,1472133,1865136
1384067,1472214,1866019
1384159,1471960,1866486
1383758,1471894,1866869
1383908,1471348,1867110
1383655,1471181,1866799
1383747,1471299,1867342
1383515,1471408,1867153
1383639,1471819,1864942
1383712,1471751,1865122
1383475,1471955,1866683
1383346,1472036,1865903
1383205,1471806,1866074
1383176,1471830,1866354
1383059,1472141,1865053
1382741,1472549,1865200
1382741,1472813,1866563
1382722,1472950,1866383
1382558,1473225,1866723
1382439,1473782,1864631
1382766,1473963,1864644
1382722,1474012,1866800
1382180,1474448,1866064
1382325,1474344,1865085
1382118,1474675,1866009
1382197,1475347,1865266
1382287,1475559,1867204
1382192,1475110,1867770
1382050,1475071,1867314
1382219,1475223,1865512
1382128,1475059,1867090
1382490,1475257,1867686
1382380,1475002,1866945
1382418,1474919,1868441
1382235,1475027,1868179
1382330,1475215,1867089
1382393,1475480,1867012
1382125,1475820,1867485
1381918,1475899,1868492
1381918,1475995,1868767
1382011,1475716,1867744
1382101,1476177,1866529
1382101,1476057,1868214
1382039,1475909,1867970
1382234,1476080,1866553
1382328,1476523,1867497
1382309,1476750,1868310
1382559,1476578,1869208
1382844,1476130,1867381
1383061,1476265,1866577
1382926,1475844,1869581
1382549,1474774,1870003
1382363,1473869,1870085
1382732,1473903,1867878
1382621,1473935,1868228
1382504,1474021,1868773
1382198,1473822,1868467
1382179,1473756,1869138
1382123,1473518,1868116
1381959,1473612,1868740
1381969,1473510,1868502
1381758,1472875,1868077
1381367,1473081,1867664
1381316,1473131,1869433
1381541,1473050,1867436
1381730,1473357,1868177
1381565,1473664,1867836
1381249,1473648,1868095
1380901,1474410,1868144
1381001,1474413,1868610
1381120,1474623,1867773
1380931,1475262,1868480
1380931,1476021,1867699
1380862,1476488,1866501
1380776,1476787,1866243
1380993,1477468,1865807
1381425,1477416,1866455
1381300,1477272,1866754
1381145,1477530,1866854
1381260,1477556,1867077
1381273,1477209,1865640
1381511,1477350,1865648
1381522,1477745,1865575
1381473,1477508,1868237
1381343,1477135,1867764
1381237,1476835,1866691
1381483,1477169,1864840
1381481,1477328,1866325
1381724,1477522,1865488
1381618,1477631,1865810
1381674,1477638,1864658
1381694,1477808,1864857
1381524,1478269,1865850
1381982,1478832,1864412
1381671,1479671,1864886
1381859,1480275,1864789
1381859,1481018,1865480
1381991,1481227,1865787
1382156,1481732,1864068
1382379,1482025,1863558
1382635,1481729,1863510
1382723,1481873,1863179
1382336,1481734,1863395
1382411,1481168,1863458
1382534,1481020,1862277
1382675,1480230,1862723
1382769,1479958,1864330
1382908,1479460,1864260
1382814,1479030,1863006
1382749,1479107,1863556
1382873,1479063,1863746
1382894,1479401,1863499
1383266,1479336,1863184
1383378,1479367,1863973
1383659,1478994,1864812
1383557,1479105,1865258
1383595,1479072,1865264
1383586,1478986,1865234
1383466,1478862,1866149
1383466,1478555,1866720
1383547,1478092,1865806
1383369,1477390,1866491
1383523,1476596,1866528
1383498,1475755,1866609
1383486,1474804,1866600
1383273,1473436,1868255
1383355,1473138,1867160
1383475,1472869,1867217
1383482,1472957,1868008
1383393,1472938,1869174
1383389,1472235,1868860
1383204,1472319,1868527
1383442,1472341,1866674
1383526,1471914,1867748
1383906,1471966,1867775
1383866,1471725,1867192
1383971,1471063,1868199
1383614,1470886,1868723
1383833,1470354,1868020
1383725,1470106,1867510
1383333,1469586,1868320
1383333,1469042,1868563
1383166,1468583,1868964
1382992,1467936,1869045
1382978,1467860,1869484
1383178,1468211,1869410
1382831,1467549,1871118
1382177,1467670,1871486
1381944,1467887,1872078
1382058,1468098,1871154
1381684,1468357,1870759
1381639,1468717,1871922
1381484,1468820,1872126
1381267,1469067,1871571
1381027,1469525,1871705
1381207,1469740,1872465
1381247,1470139,1873581
1381271,1470167,1872604
1381078,1470245,1870428
1381149,1470048,1872828
1381105,1470550,1872271
1380962,1470717,1872438
1380736,1470950,1871666
1380558,1471198,1872223
1380558,1471539,1871110
1380527,1471887,1872995
1380610,1472275,1872207
1380330,1472217,1873867
1380270,1472200,1872361
1380072,1472383,1872417
1379701,1472808,1871290
1379555,1473173,1871438
1379491,1473389,1872098
1379308,1473466,1871015
1379259,1473647,1871261
1379114,1473820,1870522
1379083,1474291,1870873
1378958,1474527,1869940
1379331,1475050,1870756
1379220,1475226,1871453
1379226,1475429,1870477
1379247,1475429,1869101
1379113,1475982,1869941
1379208,1476306,1870291
1378896,1477495,1871442
1378784,1478394,1870769
1378784,1478895,1871001
1378831,1479601,1872073
1378940,1480436,1869825
1379149,1480930,1869821
1379316,1481483,1870174
1379409,1481793,1871134
1379300,1482787,1870857
1379730,1484199,1869949
1379698,1484691,1871020
1379712,1485502,1870410
1379579,1485644,1871104
1379648,1485808,1871910
1379777,1486221,1872350
1379903,1486579,1870783
1380188,1486786,1872553
1380652,1487163,1871580
1380583,1487607,1872756
1380642,1487943,1874493
1380563,1488396,1871609
1380823,1489106,1872097
1381181,1489546,1871489
1381070,1490284,1872498
1381070,1490737,1872468
1380864,1491209,1872854
1381103,1492011,1873038
1381373,1492883,1872816
1381742,1493734,1872541
1381842,1494219,1873022
1382021,1495577,1872969
1382315,1497324,1872756
1382885,1498412,1873673
1383143,1499113,1872629
1383397,1499821,1872926
1383266,1499820,1873621
1383281,1499360,1873584
1383494,1499261,1873900
1383545,1498701,1873369
1383666,1498111,1874039
1383863,1498927,1873149
1384125,1501769,1874577
1384265,1503010,1874733
1384450,1503326,1872618
1384453,1503895,1871968
1384229,1504446,1872131
1384823,1504972,1872252
1384495,1505700,1872131
1384881,1505998,1872146
1385060,1506199,1871273
1385189,1506278,1871280
1385636,1506949,1871904
1385683,1507136,1871275
1385829,1507267,1870539
1386111,1508299,1871595
1385898,1508837,1871025
1386620,1509278,1870764
1386909,1509882,1871324
1387066,1509916,1872107
1387329,1509940,1871027
1387374,1510032,1872138
1387681,1510018,1871097
1387442,1510703,1872024
1387331,1510790,1872413
1387331,1510737,1873476
1387781,1510536,1872473
1387296,1510557,1871613
1387877,1510719,1872869
1387948,1510520,1872126
1388072,1510476,1871133
1388484,1510364,1872385
1388427,1510361,1873590
1388584,1510308,1872421
1388957,1510108,1872816
1388629,1509694,1873506
1388886,1509213,1873485
1389045,1509061,1874276
1389179,1508692,1873480
1389321,1507973,1873201
1389537,1507452,1874573
1389679,1507145,1873701
1389440,1506456,1874167
1389366,1506520,1874657
1389631,1506179,1874974
1389611,1505860,1874503
1389408,1505503,1874327
1389408,1504850,1873502
1389295,1504225,1874567
1389449,1503457,1874088
1389489,1503248,1874459
1389722,1502499,1873741
1389767,1501641,1873221
1389815,1501420,1872536
1389741,1500988,1871830
1389931,1500814,1870998
1389961,1500803,1871255
1389942,1499712,1874870
1390312,1498076,1871701
1390381,1496699,1872827
1390174,1494933,1872361
1389665,1493132,1871503
1389661,1492781,1874032
1389333,1492027,1872348
1389176,1491421,1872401
1388785,1491146,1870724
1388637,1490854,1871070
1388334,1490393,1871231
1388254,1489820,1870099
1388008,1489272,1869646
1387991,1489301,1868889
1387873,1488945,1871077
1387507,1488581,1869283
1387206,1488492,1869139
1387251,1488643,1869072
1387103,1488618,1869614
1387241,1488737,1870080
1386982,1488512,1870035
1386705,1488481,1869873
1386538,1488351,1870211
1386563,1488665,1869962
1386478,1489140,1870293
1386203,1489152,1870996
1386203,1489073,1871296
1385973,1488965,1870600
1385920,1488415,1868175
1385684,1488018,1870421
1385728,1487673,1870819
1385623,1486933,1870892
1384953,1486206,1870542
1384655,1486433,1871154
1384531,1486225,1869274
1384487,1486046,1870563
1384469,1486077,1872235
1384211,1485751,1872303
1383856,1485603,1871273
1383743,1485468,1872055
1383797,1485127,1871012
1383890,1484773,1872054
1383739,1484457,1872230
1383519,1484219,1870620
1383482,1484002,1869934
1383277,1484010,1870150
1383322,1483593,1870444
1382579,1482647,1871268
1382796,1482684,1871967
1382776,1482558,1873088
1382707,1482543,1870664
1382393,1482424,1869975
1382573,1482270,1870383
1382211,1482573,1868801
1382250,1482357,1868389
1382375,1482244,1868343
1382292,1482484,1869351
1382277,1482556,1871723
1382291,1482434,1867058
1382223,1482577,1865231
1382096,1482702,1866170
1382007,1482837,1865975
1382285,1482741,1866191
1382301,1482763,1865938
1382395,1482515,1866870
1382188,1482195,1865372
1382075,1482473,1865963
1382214,1482224,1866601
1381954,1482361,1866817
1381663,1482302,1866122
1381663,1481993,1867139
1381601,1481772,1865418
1381627,1481388,1865411
1381799,1481251,1865101
1381555,1480756,1865900
1381565,1480050,1865127
1381170,1478981,1864883
1380890,1478023,1864506
1380621,1476687,1865656
1380460,1475742,1863741
1380123,1474513,1864084
1379649,1473208,1862928
1379052,1471908,1862894
1378909,1470478,1861894
1378690,1469169,1859352
1378184,1467674,1861643
1377683,1465962,1861405
1377317,1463514,1861815
1376658,1460632,1863112
1376268,1456631,1862764
1375919,1453358,1863623
1375449,1450268,1862684
1375449,1447880,1862818
1375036,1446468,1861983
1374720,1446379,1861095
1374579,1446611,1861427
1374111,1446853,1860834
1373832,1447027,1861170
1372891,1446955,1860935
1372463,1447423,1860847
1372405,1447323,1859533
1372070,1447556,1860609
1371867,1447959,1860079
1371428,1448609,1860187
1371100,1449017,1860495
1370961,1449695,1860402
1370935,1449947,1860581
1370581,1450052,1860366
1370410,1449797,1860108
1370185,1449306,1859886
1369794,1449122,1859469
1369518,1448989,1861273
1369366,1449024,1860574
1368715,1448893,1860233
1368371,1449243,1860376
1368371,1449387,1860492
1368412,1449920,1861481
1368244,1450778,1859204
1368171,1451106,1860136
1368173,1450670,1859976
1367964,1450780,1861010
1367856,1451509,1859964
1367641,1452251,1858624
1367438,1453015,1859020
1367303,1454078,1859705
1367356,1454230,1859719
1367004,1454467,1860733
1367356,1454514,1859232
1367197,1454053,1860678
1367357,1453771,1859189
1367293,1453407,1857499
1367157,1453151,1859227
1367135,1453265,1857892
1366880,1453558,1860591
1366928,1454060,1858545
1366745,1454349,1859734
1366605,1454610,1860512
1366605,1454685,1860338
1366853,1454603,1860529
1366686,1454926,1859575
1366755,1454198,1861149
1366668,1453777,1860080
1366682,1453434,1860099
1366922,1453318,1859878
1366697,1453394,1859926
1366585,1453295,1860110
1366933,1453067,1858993
1366898,1452857,1860828
1366609,1452851,1861775
1366611,1452911,1858849
1366770,1453122,1860058
1366258,1453243,1858775
1367025,1453180,1859974
1367086,1453099,1860100
1367162,1452686,1861402
1367212,1452891,1861544
1367319,1452760,1861218
1367144,1453163,1861410
1366981,1453300,1860674
1366981,1453253,1859933
1367036,1453254,1862052
1367215,1453175,1862514
1366893,1452654,1861214
1367127,1451972,1860223
1366984,1451332,1859980
1366497,1451250,1859809
1366196,1451323,1860474
1366233,1451356,1859543
1365797,1451559,1859985
1365547,1451332,1860291
1364802,1450693,1860529
1364875,1450672,1860341
1364932,1450921,1861006
1364929,1450979,1859672
1365053,1451212,1860927
1365116,1451538,1860172
1365107,1451862,1860675
1365070,1452753,1861459
1364928,1453131,1861815
1364846,1453914,1861689
1364337,1454106,1861686
1364337,1454066,1861024
1364423,1454131,1862536
1364616,1453994,1862437
1364633,1454327,1861762
1364715,1453965,1862248
1364881,1453797,1862371
1364737,1453890,1862105
1364577,1454233,1861580
1364167,1453934,1861548
1364534,1453940,1861630
1364529,1453772,1860990
1364587,1453376,1861538
1364283,1453208,1862056
1364390,1453208,1861426
1364193,1453499,1860631
1364429,1453499,1861644
1364352,1453409,1862501
1364361,1453302,1860651
1363886,1453252,1861818
1364077,1453307,1860303
1364319,1453266,1859523
1364138,1453470,1861928
1364107,1453521,1862752
1364107,1453698,1863761
1364149,1453544,1864754
1364313,1453636,1863610
1364487,1453751,1864405
1364256,1453193,1864268
1364379,1453120,1864549
1364676,1453285,1865132
1364690,1453273,1864875
1364779,1453515,1865228
1364872,1453701,1864699
1364877,1453578,1863841
1364740,1453147,1864679
1364921,1452972,1866698
1364919,1452695,1866478
1365231,1452437,1865175
1365203,1452413,1863685
1365450,1452348,1864465
1365120,1453612,1865435
1365298,1454141,1865005
1365408,1454562,1864627
1365425,1453771,1864153
1365279,1453590,1863595
1365429,1453358,1865583
1365595,1453668,1866171
1365446,1454084,1866281
1365251,1454332,1866671
1365791,1454419,1865821
1365560,1455022,1865439
1365791,1455394,1865631
1365699,1455399,1866689
1365717,1455784,1865765
1365707,1455848,1865415
1366037,1456235,1865539
1366310,1456524,1865948
1366236,1456886,1865795
1366340,1457023,1865574
1366214,1457537,1865979
1366221,1457659,1865175
1366525,1458170,1865813
1366391,1458215,1866369
1366391,1457862,1866338
1366296,1457869,1867178
1366210,1457602,1865839
1366254,1457953,1865930
1366317,1457734,1867054
1366035,1457125,1867491
1365576,1457270,1866968
1365345,1457663,1867398
1365230,1457606,1866466
1365137,1457390,1866728
1364464,1457038,1866187
1364042,1456909,1866512
1364081,1458010,1866970
1363903,1459135,1866340
1363832,1459718,1865987
1364038,1460023,1870705
1364006,1460038,1866752
1363951,1460181,1868080
1363989,1460442,1866077
1363787,1460306,1866427
1363286,1460465,1866408
1363141,1460662,1868368
1362998,1461450,1868742
1363202,1461739,1867952
1362761,1461716,1870363
1362959,1462185,1867449
1362855,1462253,1868551
1363044,1462209,1867427
1363029,1462375,1868913
1363022,1462655,1867048
1362949,1462994,1868914
1362846,1463808,1868010
1362922,1464781,1869209
1362901,1465964,1868055
1362531,1466685,1867703
1362531,1467226,1868150
1362423,1467614,1867207
1362633,1467704,1866422
1362867,1467686,1867672
1363027,1467798,1866805
1363255,1467525,1866235
1363338,1467648,1866660
1363253,1467741,1866343
1363248,1467457,1866327
1363614,1467226,1867981
1363299,1466990,1868239
1363364,1466533,1867846
1363037,1466126,1868716
1363233,1466174,1868704
1363262,1466143,1868042
1363756,1466131,1868012
1363567,1466267,1868613
1363698,1466285,1868218
1363550,1466347,1868898
1363708,1466557,1867503
1363848,1466632,1868591
1363691,1466310,1867653
1363744,1466619,1868435
1363985,1466181,1868757
1363772,1466192,1869266
1363951,1466140,1869935
1364049,1466116,1868792
1363881,1466468,1870338
1363749,1466286,1868305
1363671,1466661,1869190
1363781,1466765,1868176
1363726,1466976,1869069
1363884,1466605,1869112
1363863,1466782,1867866
1363610,1467180,1868561
1363562,1467160,1867998
1363735,1467313,1869544
1363748,1467572,1868809
1363754,1467494,1869896
1363811,1467462,1869368
1363595,1467417,1869763
1363448,1467068,1869900
1363298,1466976,1869808
1362905,1466715,1869310
1362521,1466088,1870524
1362058,1464286,1870644
1361902,1463837,1870416
1361878,1463443,1870190
1361599,1463215,1870308
1361207,1463081,1870698
1361183,1462271,1869372
1360921,1461220,1868676
1360883,1460577,1870093
1360816,1460236,1870815
1360678,1459865,1869405
1360627,1459811,1870300
1360625,1459615,1870245
1360769,1459317,1869712
1360841,1459344,1870359
1360786,1459249,1869863
1360714,1459029,1870446
1360635,1459250,1869680
1360570,1459169,1870362
1360364,1459007,1870248
1360312,1459257,1869743
1360312,1459177,1870855
1360210,1459279,1871787
1360117,1458711,1870822
1360212,1458683,1871917
1359841,1458267,1871194
1360134,1458134,1870955
1359675,1458696,1870588
1359428,1459307,1870069
1359341,1459306,1870080
1359336,1460131,1870167
1359365,1460407,1871843
1359340,1460296,1871566
1358786,1460472,1870940
1359158,1460730,1869561
1359017,1461165,1871302
1359173,1461863,1870846
1359405,1462292,1869950
1359277,1462004,1870688
1359377,1462043,1869648
1359515,1461673,1870624
1359432,1461987,1869865
1359463,1462224,1869062
1359581,1462369,1870343
1359376,1462799,1869122
1359270,1462724,1870192
1359432,1462751,1869619
1359246,1462648,1869498
1359510,1462956,1868481
1359463,1462947,1869109
1359435,1462788,1868534
1359520,1463221,1869755
1359679,1463306,1869897
1360075,1463416,1869794
1360027,1463431,1869604
1359871,1463265,1869086
1359956,1463111,1868756
1359619,1463201,1869514
1360025,1463153,1868755
1359738,1463411,1870523
1359560,1463391,1870150
1359560,1463188,1869867
1359983,1463220,1869020
1359825,1463164,1870095
1360007,1463173,1870614
1359946,1462885,1870388
1359886,1462871,1870086
1359971,1463299,1871343
1360126,1463547,1872000
1360195,1463505,1872118
1360187,1463791,1872151
1360403,1463955,1871790
1360235,1463837,1871403
1360289,1463890,1872280
1360253,1463835,1871962
1360655,1464277,1871939
1360339,1464360,1871838
1360524,1464172,1871592
1360730,1464117,1871083
1360568,1464225,1871281
1360660,1464094,1871514
1360380,1464023,1871527
1360136,1463858,1870428
1360136,1463729,1869757
1360042,1463428,1871460
1359919,1463319,1871689
1359816,1463031,1872526
1359346,1462775,1872481
1359494,1462424,1871488
1359341,1463127,1871504
1359247,1463350,1870700
1359128,1463349,1870503
1359060,1463429,1871878
1358857,1463410,1871771
1358649,1463008,1870789
1358788,1462987,1871432
1358697,1463246,1874131
1358755,1463465,1870829
1359107,1463871,1871767
1359121,1464239,1871767
1358786,1464322,1872244
1358800,1464578,1872259
1358882,1464692,1871586
1358954,1464945,1873839
1358701,1465011,1873549
1358701,1464962,1876526
1358623,1465249,1873771
1358624,1464758,1873064
1358707,1465099,1873525
1358707,1464781,1873415
1358686,1464391,1874436
1358437,1464316,1873462
1358428,1464630,1872111
1358497,1464669,1871847
1358576,1464445,1872883
1358347,1464804,1871854
1358380,1464284,1871477
1357887,1464216,1870790
1358293,1464184,1871713
1358250,1464126,1872547
1358388,1464035,1870955
1358365,1463716,1871252
1358545,1463495,1872073
1358547,1463128,1871804
1358403,1463280,1872636
1358617,1463316,1873248
1358373,1463510,1872955
1358220,1463301,1872800
1358220,1463271,1872986
1358324,1462919,1872163
1358340,1462631,1872088
1358356,1462153,1872468
1358402,1461644,1872810
1358554,1461432,1873328
1358459,1461259,1872679
1358505,1461331,1872190
1358642,1461270,1872525
1358773,1461183,1872406
1358683,1461213,1871697
1358687,1460914,1871882
1358596,1461145,1871683
1358793,1461243,1872495
1358843,1461483,1872099
1359186,1461951,1871588
1359053,1462593,1870749
1359426,1463003,1871566
1359102,1463678,1871324
1359115,1463988,1874900
1359098,1464915,1873482
1359032,1465086,1872607
1359032,1465261,1871218
1359037,1465478,1871786
1359359,1465732,1871143
1359249,1465993,1873296
1359389,1465989,1873397
1359639,1465843,1873611
1359720,1466078,1873899
1359739,1465978,1876450
1359843,1466134,1873994
1359869,1466492,1873389
1359877,1466698,1873443
1359967,1466321,1873306
1359724,1466085,1872299
1359973,1466604,1872869
1360038,1466525,1873886
1360332,1466869,1874359
1360366,1466823,1874317
1360403,1467058,1873903
1360546,1467106,1873281
1360657,1467419,1872643
1360600,1467679,1873955
1360741,1468206,1874133
1360547,1468231,1875257
1360547,1468327,1875091
1360773,1468404,1875640
1360901,1468206,1874427
1360985,1468345,1875552
1361104,1468012,1875297
1361051,1467384,1877733
1361074,1467343,1875868
1360997,1467531,1876229
1361015,1466644,1875455
1360825,1466448,1876238
1360873,1465685,1875723
1360444,1464896,1875875
1360457,1463882,1875650
1360356,1463192,1876769
1360362,1462167,1875319
1360577,1461360,1876975
1360509,1460687,1875377
1360409,1460095,1875500
1360187,1460756,1874179
1360201,1459787,1874714
1360223,1459796,1875836
1359916,1459858,1875711
1359916,1459819,1875548
1359686,1459857,1873852
1359433,1459486,1874832
1359514,1459414,1874270
1359579,1458951,1875467
1359519,1458340,1874076
1359275,1458038,1875536
1359181,1457728,1875015
1359303,1458157,1876289
1359486,1458070,1876482
1359237,1458227,1877022
1359221,1458266,1877101
1358822,1458104,1876417
1358904,1458738,1875310
1358937,1459410,1876510
1359234,1459633,1875991
1359198,1460335,1875694
1359221,1460292,1875070
1359146,1460254,1876522
1359243,1460730,1876336
1359088,1460966,1876358
1358823,1460858,1875944
1358820,1461101,1876307
1359075,1460840,1876740
1359145,1461387,1876710
1358960,1461597,1876044
1358828,1461707,1876691
1359023,1462087,1876847
1358988,1462515,1875245
1359059,1462996,1876319
1359084,1463025,1876147
1359038,1463376,1876145
1358694,1463665,1875995
1359091,1464298,1875156
1359263,1464548,1876091
1359683,1465018,1875217
1359525,1465132,1874044
1359650,1465355,1876400
1359420,1465823,1876417
1359859,1465990,1876979
1359807,1466548,1874696
1359588,1466817,1875203
1359588,1466891,1874209
1359441,1466869,1875757
1359761,1466873,1875934
1359947,1466837,1876321
1360006,1467187,1875798
1360122,1467115,1873749
1360234,1467075,1873655
1360615,1467170,1873033
1360571,1467154,1874583
1360306,1467125,1875072
1360496,1466812,1874906
1360737,1466660,1873501
1360946,1466457,1873263
1360939,1466733,1873818
1361041,1467110,1875189
1361318,1467224,1874531
1361435,1467431,1872410
1361550,1467069,1873923
1361668,1467321,1873344
1361531,1467196,1873822
1361845,1467162,1874266
1361591,1467464,1873985
1361591,1467087,1875313
1361576,1467159,1874612
1361647,1467028,1874555
1361631,1467222,1875142
1361933,1466982,1875755
1361935,1466819,1875860
1361970,1466929,1875195
1362246,1466699,1875001
1362247,1466540,1875800
1362446,1466390,1875893
1362380,1466086,1876290
1362356,1465615,1876653
1362199,1465239,1876067
1362228,1464950,1876304
1362021,1464504,1876526
1362200,1464027,1875791
1362269,1463702,1875524
1362063,1463113,1875725
1362006,1462640,1875806
1362031,1462723,1876857
1361946,1462491,1877260
1361804,1462369,1876214
1361694,1462461,1875632
1361694,1462299,1876084
1361643,1462606,1876295
1361512,1462795,1877520
1361669,1462974,1876727
1361447,1462977,1875975
1361737,1462972,1876540
1361419,1463476,1876755
1361451,1464168,1876723
1361646,1464417,1877075
1361574,1465194,1877734
1361697,1465713,1877554
1361455,1465829,1876414
1361443,1466279,1877429
1361643,1466596,1878607
1361720,1466860,1878717
1361815,1467164,1879485
1361912,1466800,1876972
1361916,1466952,1877254
1362104,1467224,1879369
1361791,1467894,1878378
1361986,1468808,1877792
1361535,1469663,1878137
1361535,1469956,1877628
1361490,1470420,1877210
1361415,1470830,1877864
1361493,1471701,1878191
1361568,1471514,1878786
1361561,1471435,1879520
1361764,1471851,1878229
1361716,1472299,1879570
1361861,1472135,1879459
1361791,1472272,1878549
1361696,1472016,1879032
1361749,1471748,1879354
1361711,1471619,1878222
1362022,1471474,1878926
1361933,1471327,1878779
1362351,1471399,1880842
1362290,1471184,1879770
1362432,1471060,1880003
1362564,1471310,1879276
1362619,1471995,1879104
1362734,1472419,1879591
1362681,1472977,1879812
1362488,1473483,1883521
1362488,1473632,1879666
1362748,1473663,1879233
1362830,1473981,1879255
1363030,1474238,1879350
1362946,1474306,1879909
1362977,1474381,1879183
1363300,1475209,1879102
1363540,1475592,1877653
1363559,1476032,1877052
1363577,1476447,1880108
1363782,1476675,1877817
1363734,1476617,1878505
1363558,1477038,1877740
1363854,1477488,1877379
1364173,1478165,1878583
1364423,1478440,1878339
1364433,1478600,1878771
1364607,1478466,1878820
1364450,1478923,1878718
1364640,1478775,1879841
1364614,1479169,1880750
1364590,1479326,1880193
1364590,1479543,1879866
1364669,1479653,1880868
1364726,1479464,1878387
1364955,1480129,1878278
1365203,1480232,1879243
1365217,1480174,1879434
1365550,1480467,1878707
1365575,1480898,1878004
1365805,1480742,1879314
1365913,1480849,1879749
1366090,1481074,1881353
1366054,1480855,1880456
1366079,1480916,1879712
1366148,1481085,1879207
1366516,1480999,1879370
1366610,1480875,1878626
1366932,1480611,1878254
1366742,1480181,1880246
1366935,1479875,1878451
1366897,1479616,1878419
1366950,1479242,1880669
1366648,1479091,1880200
1366506,1478268,1879662
1366506,1477909,1879778
1366539,1477243,1878035
1366534,1477156,1879929
1366451,1477033,1879937
1366419,1476260,1880378
1366320,1475907,1880153
1366359,1475993,1883623
1366235,1476136,1880044
1366160,1475959,1879309
1366111,1475680,1879480
1366173,1475600,1880710
1365805,1474964,1880582
1365875,1474832,1880777
1365745,1474397,1879935
1365898,1473988,1880174
1365956,1474865,1880838
1366190,1474615,1882515
1366201,1474759,1880957
1366184,1475008,1880360
1366069,1475481,1880285
1366061,1475895,1881198
1365817,1476002,1881488
1365817,1475971,1880182
1365906,1476179,1881663
1365989,1476507,1881596
1365880,1476962,1881761
1366007,1477239,1881453
1366155,1477442,1881972
1365970,1478147,1881405
1366218,1479156,1881472
1366131,1479453,1880352
1366149,1480024,1880567
1366183,1480535,1881588
1366087,1480607,1881273
1365895,1480726,1881564
1366068,1481451,1881976
1366101,1481797,1882136
1366382,1482756,1882786
1366294,1482722,1883369
1366550,1481969,1881691
1366746,1482193,1881161
1366769,1481783,1882534
1366548,1481857,1881710
1366805,1481968,1881731
1366586,1482401,1881781
1366519,1482553,1880846
1366500,1482688,1880734
1366637,1482930,1881049
1366728,1482916,1880648
1367029,1483355,1880777
1367079,1483290,1881306
1367042,1483177,1879904
1366968,1483447,1880483
1367267,1483642,1878661
1367460,1483692,1879471
1367562,1483858,1878811
1367721,1483936,1880629
1368034,1483785,1879853
1367913,1483895,1880859
1368046,1484145,1880170
1368291,1484293,1880708
1368132,1484284,1880565
1368132,1484307,1878935
1367993,1484229,1878730
1368201,1483960,1879983
1368185,1484190,1880574
1368245,1483999,1880325
1368402,1483742,1880254
1368251,1483774,1878978
1368411,1484338,1878954
1368521,1484545,1879547
1368318,1484730,1880324
1368512,1485178,1879892
1368626,1484548,1881039
1368400,1484448,1881501
1368600,1484669,1880647
1368701,1484542,1881776
1369133,1484523,1881381
1369185,1484236,1881317
1369066,1484151,1881960
1369196,1484075,1881100
1369148,1483772,1881118
1369240,1483964,1880731
1369224,1483897,1880513
1369148,1483645,1881035
1369148,1483507,1881603
1369072,1483102,1881473
1369301,1482841,1881586
1369094,1482588,1880524
1369357,1481760,1881399
1369193,1481315,1880989
1369187,1481121,1881462
1368913,1481085,1880775
1369156,1481099,1881751
1369176,1481125,1881408
1369153,1480937,1880398
1368914,1480717,1880548
1369004,1480804,1880963
1369048,1480566,1880603
1369386,1480668,1881030
1369564,1480482,1882834
1369562,1480601,1882063
1369747,1480519,1883095
1369861,1481053,1882875
1369961,1481354,1881990
1369725,1481852,1879829
1369331,1482185,1881405
1369331,1482023,1881983
1369587,1481901,1883051
1369692,1482132,1882389
1369856,1482412,1881678
1369875,1482061,1882431
1370045,1481958,1882477
1369921,1482007,1882384
1369926,1481716,1882646
1369817,1481608,1883173
1370169,1481736,1883119
1370126,1481513,1882510
1370192,1481164,1885139
1370096,1480809,1884298
1370186,1480940,1881951
1370337,1480899,1881590
1370573,1481049,1883857
1370645,1480974,1884117
1370669,1480862,1883215
1370342,1480721,1883572
1370809,1480844,1884788
1370672,1481205,1883504
1370640,1481008,1884899
1370640,1480864,1884386
1370481,1481001,1883301
1370791,1480457,1883736
1371085,1480357,1884710
1371200,1480376,1882384
1371252,1480193,1881623
1370557,1480403,1881945
1370727,1480124,1881024
1370766,1480198,1881126
1370968,1479945,1881528
1371030,1479904,1883350
1370955,1479959,1882311
1370934,1479909,1882588
1370836,1479643,1882253
1370968,1479631,1881568
1371283,1479848,1881654
1371106,1479734,1881763
1371448,1479429,1881299
1371492,1479224,1882594
1371467,1478730,1881603
1371641,1478933,1881146
1371701,1479209,1881240
1371641,1478802,1881886
1371700,1479152,1882757
1372042,1478759,1882086
1371810,1478872,1881433
1371715,1478820,1881976
1371733,1478756,1882289
1371764,1478735,1882034
1371616,1478663,1882195
1371901,1478600,1883081
1372006,1478706,1882113
1371917,1478370,1882787
1371965,1478323,1882307
1371950,1478478,1883002
1372002,1478560,1881559
1372304,1478256,1880836
1372262,1478392,1881066
1372373,1478133,1880887
1372232,1478408,1881186
1372301,1478236,1881602
1372063,1478334,1882173
1371863,1478204,1881881
1371863,1477877,1880080
1372121,1477592,1879034
1372100,1477453,1880305
1372044,1477370,1881405
1372107,1476909,1884254
1371950,1476490,1880460
1371801,1475741,1880731
1371847,1475432,1880275
1371791,1474863,1879393
1371703,1474299,1879396
1371719,1473773,1880031
1371615,1473281,1880087
1371500,1472985,1879241
1371502,1472962,1881091
1371486,1472669,1879839
1371622,1472753,1880018
1371654,1472415,1880268
1371342,1472119,1878977
1371475,1472187,1879546
1371635,1472282,1879676
1371578,1472955,1880704
1371310,1473332,1881351
1371310,1473353,1880540
1371341,1473552,1880381
1371631,1473428,1881441
1371804,1473274,1881199
1371745,1473241,1881114
1371574,1473073,1881456
1371529,1473357,1880659
1371264,1473137,1880375
1371266,1473462,1881096
1371325,1473520,1880126
1371539,1473101,1878047
1371391,1472914,1878898
1371517,1472508,1879809
1371233,1472256,1880945
1371197,1472213,1880641
1371323,1471787,1882242
1371455,1471608,1882087
1371268,1470941,1880122
1371007,1470315,1879339
1371062,1470446,1880520
1371381,1470464,1880979
1371048,1470862,1880163
1371106,1470852,1881031
1371088,1470658,1878354
1371040,1470625,1882497
1371134,1470521,1880785
1371105,1470573,1881287
1371088,1470353,1880759
1370952,1469978,1880028
1371040,1470278,1880155
1371161,1470152,1881031
1371181,1470262,1880499
1371466,1470290,1878889
1371436,1471014,1883363
1371377,1470525,1881085
1371192,1470551,1881485
1371157,1470503,1878524
1371165,1471305,1879461
1371098,1471594,1878073
1371098,1471928,1878244
1370973,1472357,1877699
1371254,1472746,1878805
1371282,1473163,1879772
1371496,1473258,1879978
1371479,1472890,1879088
1371268,1472967,1879802
1371416,1472324,1877873
1371387,1472060,1878841
1371399,1471726,1878403
1371471,1471569,1879125
1371388,1471447,1877703
1371549,1470641,1878640
1371746,1470626,1878180
1371593,1470424,1879540
1371595,1469938,1878568
1371248,1468857,1877801
1371387,1468579,1878041
1371371,1468126,1877672
1371186,1468270,1877845
1370770,1468086,1878776
1370694,1467964,1878544
1370700,1467929,1877683
1370772,1467973,1878121
1370679,1467505,1878815
1370606,1467181,1878897
1370421,1467078,1878472
1370299,1467168,1878849
1370399,1467209,1879039
1370643,1467390,1880844
1370717,1467436,1880174
1370677,1467555,1880146
1370506,1467491,1879961
1370513,1467864,1879887
1370381,1467837,1880187
1370316,1468360,1880356
1370206,1468302,1880452
1370206,1468103,1879934
1370218,1468189,1880556
1370214,1468520,1880206
1370191,1468349,1879235
1370110,1468037,1880011
1370053,1467828,1880352
1369857,1467569,1879849
1369750,1467791,1880014
1369903,1467837,1879581
1369798,1467878,1880202
1369687,1467720,1881470
1369739,1467360,1881994
1369434,1467141,1882661
1369584,1467319,1882381
1369705,1467116,1880945
1369677,1467314,1881513
1369782,1467402,1881376
1369502,1467300,1880855
1369690,1467361,1881072
1369605,1467605,1879833
1369510,1467611,1880210
1369496,1467986,1880490
1369333,1467936,1881546
1369333,1467950,1881396
1369124,1467856,1882424
1369371,1467965,1881882
1369303,1467799,1883248
1369224,1467525,1883637
1369547,1467110,1883278
1369330,1466803,1883703
1369216,1466762,1885086
1369064,1466982,1884229
1369151,1467036,1883894
1369109,1467234,1883069
1368903,1467000,1884845
1368904,1466803,1883871
1369070,1466915,1884080
1369160,1466716,1881943
1369421,1466773,1882922
1369244,1466358,1884534
1369019,1466157,1883636
1369060,1465978,1882294
1368908,1466084,1884024
1369056,1466035,1883092
1368913,1466268,1883251
1368636,1466110,1882659
1368636,1465877,1882986
1368689,1465980,1882860
1369038,1465665,1882154
1368766,1466138,1883028
1368913,1465726,1881680
1368788,1465504,1882176
1368989,1465682,1881311
1368770,1465597,1882563
1368982,1465749,1880635
1368710,1466165,1881221
1368928,1466140,1882413
1368843,1465918,1882243
1368636,1466000,1880161
1368954,1465781,1880626
1368890,1465623,1881018
1369206,1465405,1881243
1369198,1465219,1881382
1368981,1464528,1881015
1368697,1464276,1881153
1368399,1463713,1880495
1368711,1463030,1880087
1368292,1462859,1879406
1368144,1462370,1879324
1368144,1462102,1880996
1368122,1461728,1879424
1368106,1461812,1879164
1368139,1461688,1879413
1368023,1461515,1881418
1367857,1461270,1879709
1367634,1460746,1878764
1367560,1460439,1878045
1367310,1460166,1879085
1367198,1459487,1880649
1367042,1458931,1881341
1367156,1458297,1879900
1366540,1457685,1881102
1366332,1458218,1880412
1366260,1458315,1880780
1366213,1457973,1880810
1366234,1457814,1880939
1366178,1457736,1879735
1365894,1457910,1880743
1365503,1457861,1879739
1365571,1457827,1879385
1365685,1457934,1879048
1365709,1458253,1879786
1365700,1458342,1879455
1365394,1457916,1880327
1365064,1457676,1881564
1365243,1457696,1879134
1365244,1457458,1878411
1365397,1457650,1879294
1365410,1457638,1878387
1365414,1457527,1879064
1365437,1457441,1878794
1365390,1457723,1879718
1365291,1457389,1878937
1365099,1457752,1879469
1364720,1457533,1878284
1364720,1457667,1878670
1364822,1457268,1878774
1364693,1457726,1877629
1364644,1457521,1879366
1364754,1457253,1878381
1364681,1456814,1876446
1364788,1456303,1876882
1364382,1456458,1876798
1364480,1456276,1876717
1364533,1456278,1875846
1364505,1456377,1875064
1364280,1456281,1876756
1364159,1456422,1880110
1364299,1456495,1876723
1364368,1456364,1876039
1364400,1456399,1875070
1364442,1456464,1874954
1364553,1456239,1874098
1364302,1456512,1874649
1364439,1456653,1876047
1364134,1456984,1876781
1363951,1457010,1875511
1364119,1457335,1874973
1364276,1457098,1875424
1364064,1457115,1875485
1364246,1457121,1875388
1364131,1457251,1874802
1363932,1457408,1874528
1364042,1457287,1875294
1363883,1457454,1874048
1364058,1457555,1874129
1363948,1457435,1873214
1363733,1456839,1874043
1363595,1456411,1872271
1363664,1456292,1873218
1363496,1455924,1873485
1363701,1455460,1874491
1363417,1455155,1874093
1363206,1455144,1873019
1363223,1454642,1873771
1363198,1454682,1874644
1362995,1454807,1874796
1362838,1454842,1875499
1362280,1454644,1873431
1362280,1454617,1875409
1362526,1454634,1878200
1362414,1454629,1874778
1362407,1454609,1874017
1362152,1454142,1873446
1362160,1453746,1873665
1361958,1454013,1875950
1361731,1454123,1874288
1361800,1454207,1875125
1361660,1454538,1873960
1361798,1454669,1875869
1361683,1454637,1873104
1361508,1454368,1872438
1361121,1454216,1872360
1361321,1454346,1873366
1361286,1454451,1873412
1361429,1454286,1873696
1361414,1454336,1873847
1361267,1453954,1873960
1360696,1453909,1874081
1360187,1453804,1873924
1360267,1453261,1874321
1360403,1453061,1872554
1360119,1453466,1871278
1359981,1453275,1873796
1359858,1453186,1873332
1359783,1453055,1873706
1359670,1453628,1873215
1359601,1452705,1873368
1359521,1451984,1873429
1359263,1451630,1874386
1359371,1451972,1873266
1359406,1451886,1872742
1359450,1452742,1873278
1359120,1451674,1871497
1358833,1451402,1873405
1358827,1451612,1873873
1358969,1451245,1873959
1358683,1451345,1872373
1358535,1451462,1872989
1358627,1451838,1874500
1358256,1451995,1874281
1358594,1452065,1874330
1358415,1452191,1874939
1358362,1452058,1874347
1358422,1452012,1875267
1358460,1451978,1875029
1358268,1451685,1875923
1358383,1451679,1875818
1358212,1451719,1875298
1358493,1451906,1874887
1358546,1452181,1876389
1358511,1452408,1874949
1358622,1452157,1877079
1358354,1452543,1876612
1358520,1452588,1876040
1358346,1452967,1874470
1358147,1453005,1874361
1358147,1453162,1874493
1358238,1453124,1873507
1358281,1453127,1874719
1358251,1453417,1873070
1358253,1453483,1874313
1358437,1453304,1874734
1358089,1453325,1873846
1358171,1453449,1874674
1357952,1453132,1875413
1358058,1453055,1873490
1357863,1452571,1873900
1357729,1452225,1874130
1357539,1452220,1873967
1357389,1452210,1874035
1357131,1451856,1873568
1357504,1452013,1874443
1357340,1451593,1874770
1357224,1451057,1873124
1356926,1450863,1874834
1356768,1450745,1873572
1356686,1450645,1873263
1356446,1450833,1873089
1356446,1450637,1873539
1356162,1450847,1873064
1356366,1450682,1874673
1356310,1450973,1874298
1356295,1450757,1873623
1355838,1450585,1873560
1355973,1450582,1870958
1355629,1450654,1873220
1355744,1450376,1874648
1355652,1450541,1875067
1355758,1450912,1874433
1355402,1450540,1874427
1355322,1451034,1873716
1355193,1450754,1876427
1355170,1450663,1874876
1355324,1450837,1874390
1355224,1450796,1876099
1355010,1450778,1877052
1355097,1450581,1875325
1354846,1450783,1875522
1354866,1451022,1875194
1354440,1451405,1875120
1354319,1451636,1875726
1354250,1451531,1875433
1354250,1451359,1875700
1354245,1451577,1874884
1353543,1451745,1875367
1353926,1451472,1875605
1353920,1451100,1876377
1353778,1451116,1874999
1353678,1451269,1875588
1353508,1451244,1876405
1353596,1451344,1876319
1353619,1451210,1876617
1353036,1451013,1876767
1353339,1451111,1876666
1353302,1451194,1876311
1353443,1451290,1876593
1353614,1451586,1877030
1353491,1451513,1876571
1353327,1451523,1876098
1353459,1451781,1876030
1353435,1452163,1877926
1353303,1452662,1877716
1352614,1453132,1876152
1352835,1453372,1876200
1352835,1453528,1876030
1353034,1453334,1876387
1353110,1453504,1876411
1353201,1453427,1875948
1352848,1452744,1876034
1353035,1452513,1876332
1353117,1452814,1876743
1352169,1453228,1876129
1352710,1452738,1877173
1352907,1453021,1877587
1352903,1452958,1878033
1352798,1452644,1878790
1352622,1452749,1877753
1352813,1452511,1877709
1353159,1452318,1878857
1353155,1452206,1877186
1353279,1452030,1877848
1352435,1451467,1878270
1352799,1451669,1878448
1353079,1451667,1877614
1352967,1452129,1879061
1352681,1452077,1876440
1352681,1452260,1877307
1352657,1452493,1878424
1352714,1452479,1877570
1352794,1452531,1877298
1352698,1452348,1876707
1352746,1452252,1876180
1352571,1452282,1876475
1352648,1452106,1876612
1352452,1451663,1876190
1352344,1451618,1877446
1351999,1451592,1878245
1352153,1451077,1876605
1351831,1450990,1877501
1351886,1451274,1878340
1351722,1451476,1878030
1351933,1451584,1877644
1351914,1451709,1876436
1351828,1451922,1877209
1351619,1452056,1877136
1351503,1452595,1878179
1351640,1453011,1877850
1351329,1453494,1877135
1350958,1453465,1875215
1350958,1453870,1876180
1350829,1453429,1877676
1350925,1454106,1877767
1351095,1454063,1878111
1350947,1454609,1878244
1350824,1454736,1877388
1351283,1455211,1878573
1350826,1455584,1878143
1350860,1455975,1878500
1350641,1456064,1878229
1350424,1455321,1876878
1350254,1455630,1876828
1350540,1456082,1878189
1350429,1456769,1878157
1350549,1456834,1878053
1350333,1456988,1878283
1350444,1456944,1878646
1350291,1456791,1878727
1350119,1457004,1879585
1350305,1457155,1878046
1350084,1457650,1879605
1349984,1458069,1879066
1349984,1458341,1880931
1350007,1458908,1879886
1349892,1458930,1880259
1350065,1459326,1879311
1350139,1459172,1879191
1350044,1458990,1878623
1350230,1459643,1879544
1350068,1460068,1880691
1350258,1460320,1881038
1350381,1460883,1882279
1350378,1461113,1880076
1350272,1461318,1881451
1350230,1461752,1881215
1350297,1462285,1880080
1350198,1462213,1881125
1350687,1462535,1879829
1350627,1462629,1879490
1350856,1462254,1881102
1350513,1462629,1881362
1350720,1462748,1880606
1350530,1463207,1881496
1350591,1463548,1881869
1350591,1463694,1881119
1350239,1463567,1881843
1350460,1463360,1882993
1350561,1463747,1882940
1350703,1463725,1881855
1350508,1463454,1883024
1350608,1463376,1882806
1350753,1463737,1883400
1350778,1463541,1880376
1350774,1463789,1882661
1350791,1463993,1881214
1350879,1464018,1882457
1350881,1464486,1882118
1351234,1465204,1880738
1351155,1464889,1881525
1351024,1464442,1880956
1351111,1464350,1881573
1351245,1464120,1883915
1351552,1463664,1881269
1351077,1463771,1879151
1350779,1463513,1878703
1350909,1463192,1879898
1350783,1462832,1880053
1350801,1462885,1879183
1350704,1462329,1878925
1350664,1461821,1879345
1350590,1461590,1880749
1350583,1461705,1878925
1350784,1461656,1879398
1350848,1462004,1878639
1350949,1462252,1878217
1350944,1462399,1879179
1350966,1462578,1880103
1350863,1462944,1877538
1350888,1462968,1876961
1350713,1463428,1877268
1350445,1463555,1877526
1350445,1463664,1877518
1350446,1463462,1878468
1350524,1463879,1878895
1350477,1464196,1877918
1350541,1463693,1878073
1350471,1463643,1877509
1350615,1464009,1879005
1350358,1464395,1877672
1350589,1464013,1878284
1350445,1463857,1876990
1350594,1463869,1877936
1350795,1464162,1877413
1350697,1464189,1877276
1350643,1463734,1877771
1350765,1463678,1877891
1350652,1463868,1877679
1350762,1464264,1879307
1350571,1464296,1877655
1350622,1464179,1878147
1350783,1464070,1877940
1350877,1464161,1877847
1350647,1464376,1877814
1350646,1464333,1878127
1350429,1464228,1877855
1350726,1464732,1877623
1350852,1464942,1878442
1351097,1465289,1878540
1350955,1465584,1878850
1351025,1465538,1877773
1350864,1465543,1878560
1350906,1465931,1877329
1350969,1465851,1878229
1351056,1466416,1877638
1350829,1466798,1879349
1350829,1467001,1878030
1351046,1467609,1878669
1351080,1467931,1878365
1351242,1468411,1879384
1351177,1468402,1879681
1351300,1468197,1879140
1351270,1468256,1878412
1351438,1468233,1879123
1351457,1468288,1878696
1351539,1468333,1878356
1351540,1468300,1878407
1351708,1468348,1877869
1351676,1468563,1877461
1351747,1468618,1878661
1351865,1468494,1877619
1352113,1468518,1880332
1352230,1468269,1878748
1352033,1468088,1878661
1351988,1467777,1879387
1351994,1467636,1879061
1351880,1467324,1879329
1351856,1467428,1878475
1351694,1467198,1880346
1351694,1467205,1878752
1351842,1466684,1879256
1351821,1466516,1879906
1351689,1466506,1880515
1351302,1466206,1880591
1351565,1466061,1880985
1351871,1466285,1880086
1351742,1466666,1879350
1351721,1466648,1878798
1351833,1467031,1879680
1351909,1466791,1878688
1351667,1466530,1879617
1351428,1466755,1877977
1351645,1466920,1878565
1351756,1467034,1878117
1352036,1467009,1878456
1351962,1467019,1879443
1352008,1466819,1879018
1351845,1466982,1879613
1351840,1466859,1877387
1351855,1466842,1878557
1351482,1466959,1878386
1351482,1466848,1878428
1351425,1466770,1878044
1351648,1466680,1878189
1351812,1466906,1878506
1351753,1466946,1879214
1351642,1466635,1878286
1351609,1466763,1879263
1351723,1467001,1877980
1351806,1467361,1877482
1351773,1467473,1877711
1351927,1467519,1878971
1352039,1467592,1878946
1352043,1467325,1878438
1351841,1467661,1880117
1351904,1467753,1878987
1352381,1468038,1878688
1352350,1468152,1879845
1352282,1467900,1880076
1352313,1467869,1879103
1352125,1468183,1879361
1352173,1468272,1879276
1352300,1468481,1877824
1352390,1468784,1878248
1352390,1468656,1878760
1352106,1468691,1877582
1352253,1468631,1877235
1352633,1468893,1878885
1352420,1468768,1879425
1352437,1468873,1879111
1352435,1469002,1878686
1352388,1469056,1878177
1352732,1470015,1879598
1352717,1469634,1878959
1352788,1469961,1879463
1353181,1469783,1879994
1352965,1469554,1880279
1352693,1469608,1880640
1352913,1469578,1881394
1353154,1469521,1880539
1353359,1469579,1880963
1353348,1469512,1879932
1353287,1469278,1879568
1353442,1469234,1879692
1353524,1469193,1879411
1353501,1469394,1878660
1353576,1469724,1879326
1353576,1469755,1880541
1353305,1469371,1881045
1353547,1469247,1879139
1353555,1469383,1877930
1353745,1469379,1879681
1353648,1469196,1879797
1353728,1469641,1879547
1353864,1470009,1878503
1353935,1470031,1878248
1354090,1470026,1880486
1354193,1469896,1878966
1354268,1469517,1879135
1354339,1469397,1878867
1354306,1469741,1879083
1354252,1470340,1878192
1354621,1470665,1877908
1354621,1470950,1878353
1354376,1470927,1879188
1354755,1471009,1879663
1354774,1471128,1880957
1354859,1470928,1880924
1354812,1471255,1879967
1354595,1471429,1880438
1354595,1471242,1879686
1354679,1471113,1881758
1354842,1470850,1880674
1354964,1470917,1880251
1354967,1470427,1879321
1355062,1470151,1879724
1354937,1470068,1879913
1355101,1469892,1879633
1355127,1469976,1878445
1355208,1469902,1878539
1355089,1469684,1878571
1355028,1469274,1880262
1354948,1469224,1878771
1355021,1468996,1877274
1355098,1469103,1875497
1355136,1469241,1877754
1355245,1468849,1878880
1355282,1468605,1877421
1355342,1468592,1877024
1355406,1468403,1876921
1355296,1468462,1877714
1354967,1468686,1877209
1354809,1468659,1878247
1354809,1468951,1878526
1355119,1468734,1876820
1355039,1469033,1876784
1355132,1468798,1877084
1355082,1468514,1877220
1354999,1468337,1877254
1355092,1468863,1876973
1355015,1469031,1876397
1355004,1469037,1876188
1355148,1469124,1877686
1355108,1469154,1876865
1355092,1469088,1877168
1355652,1469322,1878114
1355578,1469416,1877331
1355716,1469296,1876844
1355442,1469180,1876902
1355460,1469666,1877543
1355748,1469517,1876261
1355615,1469747,1877151
1355594,1469606,1878416
1355601,1469663,1877732
1355726,1469650,1877020
1355788,1469838,1877267
1355819,1469645,1876899
1355864,1469292,1877774
1355851,1469273,1876899
1355920,1469223,1877741
1356093,1469064,1876295
1356422,1468840,1877001
1356449,1468491,1878384
1356467,1468066,1879189
1356247,1468277,1878439
1356311,1468341,1877575
1356468,1468374,1877002
1356575,1468600,1877278
1356575,1468774,1879063
1356446,1468823,1878353
1356576,1468873,1877651
1356856,1469277,1876190
1356781,1469313,1881329
1357041,1469637,1878182
1356873,1469858,1878927
1357467,1470595,1878501
1357466,1471134,1878659
1357590,1471310,1877835
1357541,1471323,1879814
1357484,1470818,1879356
1357535,1470164,1879031
1357603,1470004,1879668
1357668,1469816,1884650
1357928,1469538,1879374
1357968,1469440,1879988
1357901,1469120,1879039
1357915,1468953,1880351
1358010,1469032,1880810
1358079,1469035,1881162
1358064,1469296,1879557
1357693,1469372,1880376
1357693,1469265,1880236
1358161,1469214,1879822
1357802,1469264,1881234
1358010,1469637,1880952
1357881,1469039,1881263
1357839,1468845,1881356
1357784,1469237,1880596
1358142,1470062,1879470
1358133,1470443,1879676
1358268,1470929,1878826
1358234,1471204,1879647
1358311,1470964,1880238
1358051,1471137,1879895
1358194,1471000,1880147
1358261,1471031,1879752
1358632,1471392,1878107
1358583,1471491,1877583
1358528,1471526,1877570
1358379,1471899,1877947
1358483,1471965,1877286
1358403,1472214,1877623
1358370,1472489,1877891
1357989,1472544,1877493
1357989,1472203,1876834
1358096,1472259,1876062
1358257,1472357,1876605
1358403,1472091,1876775
1358189,1471985,1875356
1358087,1472406,1876017
1358212,1472846,1876077
1358332,1473531,1876203
1358176,1473913,1876302
1358302,1473764,1876424
1358299,1473566,1877989
1358268,1473346,1877525
1358360,1473596,1877592
1358346,1473731,1878310
1358444,1473799,1878607
1358619,1473571,1877984
1358467,1473546,1877289
1358352,1473421,1877831
1358502,1473911,1877670
1358512,1473901,1877723
1358175,1474475,1876966
1358151,1474088,1878388
1358151,1474615,1877900
1358421,1475201,1877379
1358627,1475687,1875708
1358581,1475969,1874700
1358665,1475910,1873918
1358444,1476241,1875517
1358561,1476791,1874110
1358414,1477238,1874594
1358577,1477549,1875363
1358735,1477596,1875416
1358609,1477929,1875077
1358561,1477583,1875030
1358573,1477670,1874473
1358543,1477710,1874374
1359073,1477917,1873669
1359202,1477762,1872993
1359169,1477868,1875392
1359323,1477644,1875443
1359219,1477722,1875402
1359420,1477845,1876115
1359320,1478376,1875402
1359035,1478429,1876473
1359035,1478388,1875604
1359168,1478490,1876606
1359288,1478648,1875851
1359593,1478909,1876463
1359530,1478789,1876641
1359612,1478937,1875567
1359602,1479049,1875503
1359711,1479116,1875488
1359719,1478945,1876599
1359766,1478758,1875914
1359896,1478761,1878315
1359806,1477912,1877611
1359768,1477937,1879442
1359859,1477766,1878615
1359858,1477499,1878944
1360345,1477425,1879204
1360128,1477379,1878066
1360377,1476871,1876653
1360192,1477197,1877905
1360265,1476791,1878442
1360150,1476837,1877047
1360065,1477073,1876013
1360065,1476998,1876762
1359854,1477352,1876636
1359832,1477132,1878595
1360044,1477537,1878940
1360136,1477584,1877950
1360318,1477759,1878544
1360170,1478199,1878323
1359951,1479026,1878681
1359999,1479135,1878516
1359918,1479106,1878926
1360014,1479671,1878301
1359999,1480437,1878592
1360020,1480285,1877923
1359914,1480338,1879151
1359907,1480734,1876647
1360208,1480578,1875979
1360078,1480569,1876011
1360306,1480266,1875961
1360384,1480043,1875309
1360330,1480198,1875211
1360434,1480295,1874179
1360459,1480335,1874224
1360217,1480924,1874097
1360211,1480133,1872724
1360211,1480744,1872925
1360066,1480906,1873042
1360366,1480880,1873686
1360459,1480869,1872487
1360524,1480745,1873756
1360610,1480721,1874213
1361051,1481282,1873955
1361083,1481542,1873930
1361152,1481357,1873464
1360874,1481155,1872705
1361406,1480771,1873088
1361651,1481336,1873418
1361893,1481715,1873518
1362042,1482119,1874540
1362121,1482234,1873715
1362437,1482456,1873842
1362631,1482024,1874441
1362735,1482023,1873881
1362350,1482183,1874902
1362272,1482366,1873175
1362575,1482251,1872315
1362416,1482668,1874020
1362529,1482796,1875064
1362441,1483186,1874341
1362505,1483253,1875495
1362534,1483375,1877262
1362749,1483620,1875303
1363079,1483808,1874400
1363146,1484039,1875668
1362987,1484325,1876036
1363110,1484363,1876011
1363010,1484616,1875129
1363381,1484904,1874533
1363109,1484712,1875548
1363193,1484826,1875957
1363328,1485218,1876977
1363433,1485681,1878431
1363282,1485855,1878806
1363330,1485501,1878316
1363532,1485431,1878850
1363566,1485483,1878310
1363733,1485240,1877593
1363790,1484816,1877338
1363641,1484396,1876630
1363583,1484103,1878840
1363613,1484049,1878356
1363749,1483815,1878723
1363948,1483644,1878650
1364031,1483409,1877177
1364004,1483438,1877289
1364041,1483350,1877478
1364134,1483526,1876504
1363996,1483769,1875333
1363780,1483692,1877071
1363670,1483497,1876910
1363670,1483337,1877849
1363765,1483200,1877565
1363811,1483353,1878347
1363936,1483233,1877899
1364036,1482789,1879524
1363768,1482604,1879193
1363808,1482682,1878824
1363876,1482847,1880665
1363757,1483036,1879297
1363616,1483442,1879237
1363779,1483220,1878023
1363404,1483179,1879715
1363656,1483350,1883682
1363705,1483389,1881042
1363928,1483271,1881457
1363815,1482867,1879669
1364017,1482909,1881804
1363703,1482685,1880554
1363827,1483257,1879733
1363995,1483251,1879142
1363936,1483710,1878900
1363601,1483671,1881670
1363601,1483619,1880598
1363877,1483694,1879274
1363949,1483185,1879394
1364051,1483859,1880335
1363989,1483273,1880852
1363882,1483044,1880613
1363912,1483414,1879972
1363923,1483820,1878860
1364002,1483821,1878616
1364209,1483523,1882087
1364195,1483749,1879976
1364033,1483562,1877480
1363954,1483627,1878933
1364269,1483657,1878732
1364362,1483172,1879503
1364615,1483623,1879455
1364585,1483669,1878267
1364740,1483241,1877925
1364561,1483245,1878837
1364731,1483368,1878809
1364856,1483019,1879564
1364769,1483406,1880829
1364769,1483492,1880985
1364496,1483760,1880308
1364711,1483365,1879477
1364835,1483690,1879528
1364798,1483475,1879951
1364820,1483182,1880266
1364980,1483632,1881047
1364975,1483741,1879133
1365023,1484011,1879150
1365016,1484303,1878495
1365149,1484717,1879882
1365416,1485062,1879891
1365438,1484629,1878826
1365631,1483471,1879843
1365474,1482622,1878948
1365739,1483034,1879460
1365786,1482886,1880830
1365911,1482984,1880194
1365774,1483401,1878630
1365709,1483442,1878130
1365646,1483650,1879822
1365504,1483691,1880332
1365896,1483724,1880485
1365904,1483819,1881405
1365865,1483926,1880000
1365955,1483852,1881921
1365910,1484171,1882140
1366006,1484234,1880938
1366133,1484076,1882017
1366341,1484173,1881485
1366441,1484008,1881781
1366409,1483582,1881847
1366432,1483306,1881111
1366462,1483144,1882604
1366378,1482783,1880183
1366146,1482827,1880060
1366041,1482486,1881609
1366041,1482419,1882659
1365966,1482035,1881530
1366055,1482198,1880015
1366057,1481999,1881455
1366183,1481815,1881565
1366144,1481714,1881416
1366302,1482179,1881455
1365964,1482437,1882010
1366358,1481840,1882389
1366352,1481845,1881545
1366447,1481902,1880772
1366438,1481679,1881803
1366286,1480934,1880597
1365991,1480087,1883650
1366192,1479551,1882046
1366431,1479111,1881539
1366115,1479018,1883128
1365749,1478696,1882446
1366006,1479141,1882015
1365800,1479125,1882668
1366023,1479323,1882298
1366084,1479120,1883043
1366374,1479227,1881765
1366263,1479698,1881680
1366259,1480253,1881897
1366705,1480465,1882074
1366556,1480538,1881125
1366645,1480469,1881430
1366793,1480670,1882063
1366391,1481157,1882719
1366327,1481437,1883105
1366385,1481434,1882373
1366591,1481078,1883325
1366664,1481623,1882224
1366533,1481556,1883316
1366560,1481542,1883102
1366769,1481220,1883655
1366557,1481381,1881545
1366798,1481368,1882512
1366916,1481174,1881880
1367135,1480713,1882865
1367167,1480566,1882900
1367230,1480267,1882290
1367040,1480184,1884185
1367026,1480060,1883400
1367043,1480282,1882688
1366879,1480480,1882286
1366879,1480576,1882975
1366933,1480515,1880829
1366952,1480570,1881816
1367027,1480604,1881371
1366972,1480725,1881759
1367216,1480275,1883090
1367339,1480363,1883276
1367491,1480383,1881454
1367479,1480335,1881195
1367456,1480786,1881937
1367531,1480880,1882425
1367384,1480472,1882370
1367541,1480830,1882044
1367511,1480861,1882609
1367656,1481240,1882833
1367691,1481302,1882245
1368073,1482008,1883042
1367913,1481707,1882991
1367643,1481237,1881503
1368153,1481201,1882087
1368171,1480809,1882787
1368628,1480479,1883149
1368142,1480377,1881931
1367771,1480300,1882142
1367943,1479745,1882912
1368003,1479757,1883796
1368039,1479365,1882678
1368017,1479648,1882733
1367919,1479960,1883244
1367661,1479579,1882962
1367849,1479452,1883788
1368275,1479768,1884724
1368277,1479643,1884049
1368198,1479604,1883720
1368248,1479801,1883815
1368310,1479833,1883822
1368131,1480050,1883575
1368231,1480106,1884695
1368156,1480664,1883799
1367738,1480866,1885106
1367738,1481170,1884627
1367894,1481010,1883907
1367917,1481086,1885019
1367772,1480790,1884717
1367977,1480711,1885679
1367988,1480647,1883324
1367931,1480701,1883640
1368057,1480980,1884737
1367911,1480930,1884082
1368088,1480797,1883773
1368168,1480632,1882899
1368316,1480998,1884341
1368468,1480928,1884336
1368222,1481003,1884194
1368488,1481162,1883329
1368301,1481618,1883689
1368342,1481568,1883730
1368236,1481420,1883185
1368361,1481170,1883577
1368383,1481281,1882533
1368467,1481441,1882846
1368462,1481356,1882744
1368313,1481253,1882836
1368279,1481509,1881945
1368466,1481656,1881922
1368485,1481622,1883165
1368761,1482022,1882710
1368744,1482057,1882175
1368728,1481635,1883286
1368678,1481758,1883782
1368804,1481907,1882954
1368556,1482345,1883134
1368598,1482268,1886644
1368598,1482415,1885385
1368390,1482231,1883665
1368530,1482335,1883071
1368533,1482550,1883476
1368661,1482588,1884740
1368683,1482417,1884117
1368585,1482381,1883822
1368655,1482178,1884188
1368788,1482183,1883580
1368883,1482372,1883997
1368781,1482144,1884059
1368903,1482006,1883543
1368693,1481903,1881579
1368729,1482046,1882366
1368970,1481780,1882213
1369109,1481690,1883134
1369214,1481555,1881727
1369196,1481392,1881727
1369158,1481304,1880728
1369072,1481573,1880941
1369117,1481463,1881281
1369058,1481710,1882025
1368916,1481844,1883049
1368916,1482029,1880960
1368975,1481728,1880394
1369224,1482055,1880114
1369154,1482060,1880384
1369174,1481710,1881193
1369091,1481486,1883031
1369335,1481636,1881526
1369250,1481647,1880586
1369465,1481485,1882242
1369426,1481636,1882957
1369404,1480925,1881962
1368947,1480114,1881201
1369547,1479365,1881763
1369231,1479200,1881225
1368953,1478935,1880544
1369100,1478963,1880901
1369492,1479175,1879936
1369401,1479466,1880232
1369288,1479750,1884438
1369051,1479815,1881355
1369036,1479791,1880674
1369080,1479690,1880598
1369286,1479849,1881870
1369247,1480129,1881769
1369309,1479666,1880927
1369101,1479525,1882648
1369259,1479747,1881954
1369203,1479724,1881862
1369528,1479787,1882721
1369454,1479803,1880385
1369510,1479497,1881182
1369413,1479639,1881985
1369415,1479775,1880817
1369456,1479977,1881169
1369317,1480140,1881872
1369189,1480331,1880392
1369189,1480301,1880114
1369263,1480217,1881749
1369351,1480295,1879397
1369481,1480030,1880430
1369381,1480096,1879234
1369476,1480152,1880524
1369400,1480506,1879726
1369580,1480867,1881291
1369544,1480878,1879906
1369583,1481218,1879405
1369484,1481144,1879452
1369525,1481078,1880180
1369347,1481101,1880172
1369594,1481039,1881972
1369782,1481401,1879846
1369843,1481451,1880255
1369779,1481517,1879681
1369989,1481276,1880751
1369680,1481708,1881459
1369796,1481697,1881684
1369766,1482149,1879152
1369538,1482227,1880090
1369538,1482151,1880563
1369493,1481978,1880459
1369594,1481946,1881649
1369620,1482007,1881802
1369618,1481629,1880654
1369744,1481241,1879741
1369511,1481354,1880317
1369703,1481352,1879597
1370025,1481441,1881353
1370031,1481402,1881189
1369977,1481134,1880539
1369858,1481088,1879993
1370039,1481328,1881483
1369722,1481397,1880088
1370146,1481344,1880313
1370470,1481475,1881131
1370317,1481506,1882459
1370429,1481401,1881168
1370356,1481461,1883054
1370432,1481664,1882215
1370622,1482138,1880296
1370487,1482441,1880600
1370487,1482249,1881718
1370203,1482349,1880982
1370505,1482506,1880323
1370617,1483064,1880199
1370631,1483152,1878985
1370528,1483019,1880722
1370629,1483212,1880415
1370909,1483348,1880258
1371073,1483379,1879662
1371035,1483433,1879115
1370841,1483331,1878947
1370978,1483141,1878475
1370927,1482551,1877754
1371048,1482496,1877922
1371252,1482294,1876626
1371348,1482027,1878250
1371406,1481836,1877956
1371314,1481613,1878272
1371212,1481362,1877988
1371268,1481488,1878754
1371149,1481530,1878387
1371172,1482089,1877973
1370848,1482097,1879515
1370848,1482021,1879121
1370905,1482069,1878323
1371334,1482422,1879527
1371276,1482467,1878054
1371147,1482273,1878326
1371179,1482193,1878342
1371263,1483042,1880384
1371315,1484114,1880330
1371368,1483798,1880106
1371439,1483876,1879804
1371760,1483855,1879093
1371431,1483665,1880244
1371375,1484115,1879156
1371588,1483974,1880449
1371550,1483959,1879840
1371960,1484012,1879500
1371824,1483743,1880321
1371835,1483568,1879630
1371799,1483482,1879733
1371910,1483553,1880310
1372009,1483526,1880141
1371654,1483796,1879726
1371654,1483781,1879625
1371538,1483712,1879921
1371591,1483541,1879643
1371761,1483903,1879641
1371782,1483478,1880357
1371757,1483655,1878919
1371927,1483977,1879315
1372017,1484695,1878525
1371955,1484830,1879715
1372004,1485248,1878368
1372072,1485100,1878351
1372111,1485121,1879128
1372061,1484919,1878851
1372524,1485512,1879834
1372507,1485670,1879623
1372778,1485774,1879440
1372871,1485632,1879811
1372713,1485618,1879131
1372823,1485666,1880319
1373014,1485741,1879401
1373078,1485663,1880606
1372852,1485423,1879976
1372882,1485345,1879360
1372987,1484390,1879617
1373038,1484472,1880615
1372877,1484428,1880092
1372929,1484882,1881620
1373101,1484943,1880521
1373094,1485175,1881015
1373174,1485104,1879506
1373108,1485227,1879990
1373322,1485152,1879756
1373289,1484866,1880329
1373342,1484593,1879930
1373239,1484647,1879323
1373388,1484749,1879101
1373758,1484827,1880486
1373906,1484838,1880737
1373873,1484705,1881307
1373761,1484471,1880669
1373695,1484762,1879743
1373807,1484681,1880399
1374002,1484940,1880998
1373695,1484830,1881304
1373695,1484894,1879555
1373820,1485540,1878740
1373917,1485585,1880043
1373998,1485868,1878269
1374316,1485734,1880189
1374111,1485751,1880804
1374091,1485616,1879405
1373885,1485234,1879845
1373937,1484971,1879585
1374051,1484433,1879280
1374039,1484383,1880232
1374022,1483607,1880334
1374062,1483497,1880794
1373820,1483052,1880608
1373862,1483053,1879888
1373982,1482599,1880439
1374197,1482410,1881468
1374270,1482411,1879622
1374155,1482242,1879337
1374050,1482351,1879314
1374068,1482563,1880837
1374122,1482804,1881034
1373737,1482942,1880699
1373737,1482578,1881317
1373849,1482612,1881506
1373919,1482338,1881684
1373955,1482774,1882064
1374012,1482493,1882525
1374067,1482123,1882484
1373953,1482223,1881894
1374285,1482472,1881568
1374269,1482531,1880954
1374417,1482887,1881161
1374382,1483263,1881775
1374389,1483169,1880319
1374108,1482899,1880434
1374308,1483012,1881066
1374240,1483108,1880220
1374409,1483115,1883144
1374476,1483226,1883343
1374518,1483349,1882196
1374706,1483298,1881993
1374599,1483357,1881931
1374609,1483448,1881499
1374403,1483784,1882090
1374124,1483842,1881723
1374124,1483806,1881510
1374215,1483746,1881442
1374200,1483421,1885420
1374224,1483262,1881540
1374208,1482886,1881493
1374329,1483102,1882360
1374382,1483524,1882206
1374440,1483424,1881212
1374380,1483669,1882519
1374460,1483589,1883620
1374542,1483659,1881986
1374526,1483435,1884224
1374477,1483576,1883571
1374639,1483648,1884187
1374915,1483928,1883649
1375351,1484152,1884843
1375400,1483800,1885651
1375018,1483411,1883961
1375207,1483573,1883830
1375495,1483595,1884692
1375126,1484017,1883746
1375178,1484054,1883036
1375114,1483943,1881974
1375302,1483797,1884218
1375300,1483673,1885013
1375477,1483756,1885505
1375317,1483680,1884247
1375248,1483476,1884724
1375420,1483631,1884595
1375585,1483831,1884887
1375963,1483932,1885113
1375946,1483779,1883917
1375609,1483774,1885987
1375959,1484182,1885912
1375703,1484043,1886193
1375945,1484358,1885262
1376036,1484242,1884686
1375872,1484440,1886280
1375780,1484445,1885384
1375792,1484249,1884888
1375907,1483913,1884292
1375950,1483632,1883928
1375944,1483258,1885075
1376091,1482905,1883450
1375847,1482531,1883341
1375739,1482302,1883495
1375879,1482104,1883428
1376113,1482012,1882844
1376214,1481614,1882519
1376160,1481558,1883765
1376190,1481319,1883114
1376158,1481291,1881993
1376180,1480902,1881489
1376016,1481138,1886574
1375630,1481098,1883726
1375630,1481108,1883747
1375744,1481060,1883959
1375684,1481257,1883558
1375878,1481350,1882405
1375899,1481125,1882412
1375834,1480968,1882625
1375805,1481226,1882952
1375878,1481458,1882893
1375769,1481395,1882545
1375858,1481330,1882813
1375823,1481504,1883872
1375693,1480867,1882576
1375527,1481420,1881684
1375706,1481333,1881057
1375599,1481158,1882724
1376088,1481697,1882085
1376095,1481315,1882161
1376173,1481130,1883712
1376053,1481216,1882138
1376069,1481378,1883472
1376131,1481616,1880789
1376011,1481896,1881557
1375674,1482032,1883022
1375674,1481939,1883180
1375794,1482222,1881922
1375907,1482267,1882540
1375936,1482241,1881674
1375903,1482215,1882173
1375879,1482391,1883165
1375710,1482769,1882291
1375909,1482982,1881967
1376004,1482739,1881305
1376196,1482726,1882570
1376067,1482171,1882756
1375998,1481914,1882554
1375953,1482032,1881761
1376111,1481895,1881844
1376501,1481873,1881153
1376415,1481963,1881967
1375861,1481874,1881546
1376156,1481505,1881384
1376250,1481956,1879798
1376218,1481967,1881109
1376297,1482521,1880336
1376027,1482486,1880613
1376027,1482687,1880823
1376219,1482312,1880899
1376323,1482386,1880318
1376266,1482572,1880902
1376290,1482450,1880811
1376348,1482217,1882264
1376292,1482301,1881797
1376316,1482476,1880498
1376503,1482460,1881607
1376425,1482625,1881104
1376414,1482544,1881694
1376387,1482421,1881035
1376401,1482725,1882315
1376437,1482885,1882022
1376729,1482905,1881778
1376819,1483045,1882878
1376715,1483294,1882319
1376833,1482895,1881076
1376753,1483127,1881748
1376822,1483181,1881995
1376779,1483157,1881815
1376604,1483322,1881851
1376604,1482716,1882312
1376515,1482521,1881828
1376611,1482194,1881449
1376612,1482378,1881237
1376584,1482233,1881127
1376660,1481736,1880483
1376516,1481579,1880928
1376628,1481342,1879084
1376567,1481680,1879259
1376667,1481827,1879212
1376754,1481751,1879753
1376719,1481557,1879224
1376586,1481391,1880129
1376671,1481908,1879428
1376661,1481879,1879350
1376834,1481998,1878954
1377129,1482316,1879765
1377062,1482219,1878745
1376787,1482177,1879253
1376902,1482538,1880291
1376986,1482765,1880584
1376929,1483322,1880290
1376562,1483123,1881976
1376562,1483197,1881443
1376835,1483337,1879994
1376739,1483350,1880536
1376915,1483283,1879719
1376835,1483322,1880029
1376828,1483179,1879992
1376940,1483284,1879710
1376801,1483637,1881133
1376959,1483757,1880960
1376924,1484014,1882058
1376956,1483855,1880673
1376865,1483927,1879782
1377134,1484687,1880818
1377309,1484539,1879708
1377213,1483577,1880223
1377277,1481449,1880746
1377184,1481443,1880663
1377304,1481435,1880911
1377283,1481303,1880796
1376917,1481289,1881479
1376913,1481343,1879728
1377113,1481441,1879350
1377162,1481725,1879866
1377142,1481942,1879538
1377148,1481633,1879592
1377018,1481462,1879217
1377091,1481495,1880401
1377262,1481641,1882284
1377682,1481543,1881816
1377612,1481370,1880618
1377727,1481220,1878673
1377822,1481461,1880330
1377705,1481799,1881523
1377826,1481977,1880055
1377807,1482420,1880374
1377463,1482373,1880958
1377463,1482575,1880603
1377651,1482373,1880465
1377803,1482895,1879392
1377651,1483029,1879700
1377918,1482811,1879852
1377768,1482838,1881420
1377931,1483247,1880002
1377871,1483333,1879709
1377914,1483468,1879432
1377923,1483297,1880313
1377766,1483388,1879175
1377526,1483115,1879570
1377609,1483130,1880178
1377759,1483245,1880140
1377674,1483362,1882317
1377930,1483241,1881560
1377937,1483311,1880837
1377978,1482754,1878916
1377871,1482904,1880127
1377961,1482809,1884201
1378192,1483019,1879964
1377844,1482959,1880434
1377844,1483014,1880425
1377732,1483201,1881985
1377811,1483249,1881860
1377908,1483350,1880116
1377875,1483193,1880004
1377749,1482926,1880684
1377676,1483442,1881988
1377921,1483524,1880776
1377899,1483772,1880772
1377870,1484066,1880035
1377663,1484019,1880554
1377874,1483652,1880460
1377639,1483374,1879714
1377969,1483505,1878867
1377833,1483365,1879375
1377609,1483205,1879615
1377602,1483628,1880311
1377752,1483298,1879512
1377759,1483492,1880612
1377554,1483724,1881751
1377365,1483996,1879989
1377409,1483900,1879266
1377612,1483779,1879476
1377445,1484040,1879986
1377477,1484046,1879556
1377413,1483746,1879216
1377353,1483738,1879726
1377481,1483947,1879768
1377643,1484107,1881606
1377817,1484500,1881425
1377859,1484428,1880560
1377817,1483960,1881398
1377692,1483922,1879258
1377838,1483840,1880448
1377808,1483585,1880874
1377607,1483525,1881095
1377607,1483138,1879832
1377467,1483212,1881213
1377413,1483251,1880920
1377400,1482833,1880245
1377604,1483044,1880670
1377536,1482926,1880731
1377453,1482841,1879389
1377475,1482579,1880667
1377491,1482447,1882352
1377681,1482227,1881959
1377624,1482786,1879936
1377540,1482694,1879374
1377211,1482401,1881648
1377324,1482863,1880002
1377346,1482808,1879242
1377566,1482845,1881227
1377538,1482733,1882175
1377711,1482334,1882519
1377508,1482215,1882383
1377477,1482196,1880198
1377258,1481436,1881783
1376893,1479870,1880437
1376909,1480025,1884787
1376994,1479769,1883349
1376717,1479648,1882428
1376669,1479792,1882213
1376581,1479856,1883744
1376446,1479632,1881832
1376557,1479319,1883362
1376501,1479221,1881334
1376395,1478111,1882347
1376228,1478472,1882535
1375974,1479262,1883929
1375969,1481089,1884093
1375362,1482295,1883254
1375683,1482432,1882850
1375805,1482215,1882800
1375846,1482160,1883351
1375548,1482234,1881620
1375462,1482458,1883099
1375646,1482844,1883571
1375734,1483047,1882593
1376032,1483862,1882330
1375883,1483918,1883726
1375798,1484229,1882346
1375623,1484350,1883717
1375847,1484620,1884391
1376057,1484737,1883755
1376006,1484871,1883210
1376159,1484654,1882693
1376057,1484643,1883497
1376052,1484491,1883163
1375784,1484640,1882236
1375749,1484782,1883626
1375486,1485390,1883757
1375997,1484987,1881912
1375864,1485446,1883452
1375993,1485691,1882926
1375700,1485839,1882432
1375852,1485763,1882525
1375914,1485706,1882765
1375958,1486098,1882649
1376001,1487316,1882482
1376315,1488079,1882023
1376519,1488112,1881177
1376800,1488567,1880722
1376482,1489075,1880915
1376524,1488722,1881545
1376840,1488669,1882576
1376552,1489053,1881706
1376248,1488504,1881469
1376325,1488274,1881016
1376120,1487830,1882833
1376238,1487530,1881592
1376166,1486883,1883012
1376046,1486803,1882101
1375485,1486258,1882048
1375666,1486409,1882167
1375883,1486482,1882374
1375774,1486614,1881789
1375638,1486723,1880935
1375346,1486902,1882541
1375190,1486878,1882331
1375211,1486999,1883485
1375064,1486960,1882912
1374797,1487134,1883275
1374649,1487215,1882306
1374649,1486754,1882608
1374720,1486558,1882304
1374701,1486566,1882130
1374390,1486763,1882605
1374356,1486698,1882736
1374262,1486777,1883233
1373633,1487413,1882408
1373399,1487789,1883497
1373489,1487665,1883743
1373436,1487583,1883285
1373246,1487304,1883382
1373002,1486970,1884004
1373093,1486332,1883353
1373221,1486494,1882550
1373483,1486489,1882159
1373565,1486399,1882795
1373552,1486385,1882246
1373434,1486089,1883591
1372980,1486468,1882631
1373263,1486629,1882996
1372731,1487171,1883029
1372934,1487497,1883707
1372934,1487517,1882480
1372873,1487521,1883761
1372834,1487286,1884294
1373007,1487290,1884453
1373174,1487002,1881899
1373192,1487005,1881920
1373195,1487219,1880281
1373308,1487392,1882428
1373072,1487277,1881848
1373109,1486869,1881693
1373153,1486912,1882443
1373049,1486246,1883382
1372950,1485841,1882744
1373016,1485961,1882815
1373073,1485674,1883200
1373111,1485510,1883181
1373209,1485407,1882234
1373089,1484966,1882358
1373045,1484787,1882721
1373004,1484608,1882973
1372969,1484375,1882854
1372716,1484655,1883405
1372523,1484596,1883164
1372523,1484621,1883099
1372866,1484438,1883329
1372723,1484660,1883838
1372626,1484517,1883759
1372582,1484468,1883081
1372523,1484171,1883624
1372635,1484052,1884537
1372614,1484621,1884537
1372692,1484722,1885015
1372687,1484925,1882430
1372627,1484712,1883627
1372622,1484771,1883281
1372591,1484946,1882365
1372649,1485003,1882121
1372654,1485096,1882858
1372796,1485021,1882751
1372679,1484956,1881597
1372546,1484604,1882929
1372575,1484477,1881128
1372567,1484335,1881489
1372294,1484535,1881526
1372006,1484415,1880531
1372006,1483940,1881516
1372037,1483580,1880261
1372089,1482961,1879550
1372017,1482646,1880340
1372117,1482236,1879580
1372106,1481756,1879277
1371582,1481502,1879218
1371372,1481845,1880793
1371461,1481430,1881290
1371462,1481106,1880868
1371245,1481334,1880912
1371237,1480562,1880987
1370972,1480229,1879781
1370937,1479991,1881384
1370977,1479943,1884064
1371208,1479788,1880049
1371041,1479322,1878818
1370852,1479286,1879803
1370950,1479398,1880026
1370850,1479789,1881167
1370250,1479666,1880982
1370206,1479337,1880418
1370035,1479352,1879766
1370035,1479137,1880887
1369918,1478796,1881779
1369894,1478795,1882747
1369738,1478510,1881999
1369696,1478390,1881055
1369420,1478196,1881585
1369185,1479042,1882219
1368966,1479551,1881863
1368878,1479809,1880871
1368753,1479853,1882463
1368614,1480171,1882087
1368462,1480020,1882046
1368337,1480169,1881744
1368259,1480220,1883515
1368572,1480286,1882705
1368497,1480339,1881727
1368199,1479924,1882289
1367912,1479548,1882031
1367876,1479120,1881698
1367776,1479478,1882749
1367758,1479446,1882024
1367704,1479745,1881622
1367206,1479734,1881994
1367212,1479940,1883248
1367121,1479845,1882889
1367167,1479878,1884497
1367227,1479994,1883464
1367171,1479738,1883449
1366941,1479482,1883912
1366812,1479381,1883266
1366839,1479134,1884815
1366953,1479289,1883690
1367218,1479414,1883544
1367017,1479718,1882721
1367441,1479506,1885059
1366980,1479840,1883950
1367045,1479837,1884645
1366861,1480242,1884076
1366612,1480236,1882652
1366612,1480297,1884624
1366570,1480038,1883504
1366598,1479848,1884388
1366321,1479805,1882954
1366162,1479060,1885806
1366189,1478789,1883524
1365874,1478309,1883604
1365687,1478374,1884202
1365530,1478431,1884851
1365485,1478479,1884194
1365379,1478473,1885143
1365130,1478318,1885645
1365019,1478122,1884513
1365064,1478169,1883685
1365225,1478155,1887421
1365280,1478454,1885266
1365309,1478354,1884591
1365213,1478455,1882377
1365264,1478778,1883388
1365255,1478988,1884259
1365087,1479345,1882987
1364831,1479529,1883626
1364539,1479620,1882179
1364539,1480114,1884386
1364579,1480002,1882798
1364884,1480263,1882787
1364830,1480035,1882142
1364691,1479701,1883213
1364778,1479705,1883024
1364465,1479643,1883015
1364492,1479765,1881023
1364373,1479773,1882977
1364212,1479890,1883710
1364343,1479259,1883704
1363958,1479152,1883394
1364115,1479254,1883952
1363868,1479713,1882509
1364072,1480175,1883556
1364007,1480561,1882480
1363911,1480794,1884140
1363644,1481035,1882631
1363615,1481441,1882790
1363697,1481528,1880601
1363610,1482024,1880944
1363048,1482698,1881896
1363048,1483085,1881391
1363135,1483541,1883687
1362725,1483998,1882498
1363011,1484002,1882131
1362965,1483870,1881949
1362973,1483516,1882522
1363030,1483301,1882903
1362914,1483065,1884592
1363031,1482771,1883600
1362992,1482609,1882460
1362515,1482483,1881245
1362702,1482070,1882219
1362792,1482230,1881715
1362821,1482323,1881123
1362262,1482332,1881142
1362847,1482283,1882205
1362968,1482380,1881447
1362926,1482308,1880646
1362844,1482211,1880963
1362973,1482240,1880053
1362420,1482606,1881402
1362482,1482451,1881862
1362482,1482492,1882421
1362646,1482129,1881892
1362755,1482008,1879364
1362629,1482242,1881137
1362633,1482222,1881124
1362614,1481785,1880413
1362517,1481278,1881597
1362365,1481328,1881825
1362345,1480988,1882204
1362153,1481016,1881424
1362008,1481047,1882651
1361767,1481014,1881462
1361631,1480818,1881786
1361945,1481212,1882071
1361720,1481121,1882147
1361664,1481073,1882147
1361679,1480645,1882506
1361519,1479950,1881408
1361587,1479815,1881178
1361354,1479660,1881683
1361111,1479869,1882307
1360762,1479883,1882092
1360556,1479731,1882473
1360556,1479860,1882166
1360912,1479907,1879476
1360486,1480120,1881059
1360442,1480407,1880738
1360417,1480092,1879510
1360082,1480200,1879403
1359931,1481083,1880179
1360005,1481057,1880343
1360062,1481018,1879914
1360388,1481013,1880432
1360094,1481081,1880309
1359852,1480724,1880592
1359712,1480594,1880411
1359599,1480649,1881481
1359643,1480908,1881313
1359306,1481173,1881005
1359212,1481013,1880789
1358865,1480708,1881119
1358752,1480975,1880005
1358990,1480675,1880395
1358820,1481283,1879702
1358475,1481623,1880403
1358492,1481524,1879782
1358636,1481488,1880260
1358524,1481361,1881415
1358585,1481249,1880172
1358838,1481084,1878902
1358634,1480777,1878637
1358664,1480838,1880163
1358583,1480603,1879628
1358802,1480526,1879690
1358591,1480517,1879804
1358388,1480638,1879402
1358465,1481001,1879385
1358223,1480080,1878680
1358385,1480115,1878846
1358372,1479646,1878811
1358586,1479312,1879138
1358497,1479402,1878660
1358120,1479330,1879487
1358263,1479519,1879004
1358186,1479493,1878079
1358131,1479924,1878496
1358112,1480056,1879294
1357869,1480637,1879290
1357649,1480941,1878873
1357529,1481363,1879612
1357567,1480991,1880116
1357670,1480888,1879605
1357833,1480510,1879511
1357729,1480079,1879918
1357817,1479870,1879885
1357344,1479627,1879783
1357258,1479455,1878769
1357185,1479221,1877533
1356893,1479076,1880315
1356893,1479006,1878749
1356882,1478671,1879039
1356977,1479051,1879422
1356912,1478910,1880690
1356929,1478580,1879332
1356917,1478364,1879135
1356852,1478750,1879100
1356726,1479207,1879324
1356917,1479149,1879943
1356897,1479647,1880755
1356865,1479452,1880087
1356572,1479268,1879688
1356512,1479526,1879352
1356424,1479328,1882083
1356591,1479533,1879906
1356848,1479672,1880280
1356832,1479639,1882515
1356633,1479407,1882016
1356364,1479427,1882049
1356566,1479271,1881658
1356541,1479093,1880770
1356316,1479206,1881409
1356316,1478864,1882154
1356135,1479165,1879763
1356030,1479180,1878180
1356204,1479865,1878351
1356236,1479820,1880031
1355984,1479920,1880309
1355960,1480357,1881288
1356145,1480930,1879640
1355937,1481340,1880181
1355960,1481272,1880345
1355871,1481250,1880419
1355783,1480726,1880007
1355491,1480364,1880811
1355843,1480469,1882657
1355686,1480422,1881543
1356111,1480339,1882594
1355797,1480456,1880296
1355984,1480411,1881136
1355816,1480354,1881258
1356063,1480275,1881164
1355793,1480172,1882126
1355648,1480267,1883240
1355324,1480257,1883330
1355324,1480351,1883918
1355465,1480433,1881389
1355363,1480394,1880654
1355548,1480433,1881898
1355692,1480032,1882208
1355626,1479664,1882066
1355307,1479122,1882936
1355406,1479092,1882444
1355309,1478923,1882027
1355201,1478692,1881763
1355144,1478377,1882082
1354947,1477734,1885073
1354753,1477342,1883347
1354774,1476429,1883484
1354976,1476543,1882465
1354884,1476249,1884060
1354602,1475587,1885408
1354863,1475195,1883533
1354466,1475451,1882173
1354394,1475390,1881465
1354043,1475901,1881813
1353953,1475813,1885744
1353953,1475887,1883225
1353938,1475607,1882168
1353972,1475622,1879889
1353688,1475640,1880454
1353651,1475329,1882049
1353657,1474980,1881754
1353677,1475333,1881053
1353425,1475806,1880179
1353369,1475677,1883513
1353437,1475638,1880869
1353574,1475694,1880555
1353442,1475482,1879765
1353125,1475032,1879879
1353244,1475080,1878209
1353211,1475023,1878366
1353393,1475121,1880846
1353361,1474818,1879637
1353232,1474771,1879647
1353343,1474912,1882883
1353369,1475144,1881335
1353193,1475268,1879308
1352716,1475714,1879696
1352636,1475340,1880763
1352636,1475720,1880331
1352555,1475846,1879995
1352714,1475619,1880093
1352532,1475557,1880623
1352716,1475100,1880085
1352551,1475032,1881956
1352693,1475305,1881026
1352632,1475885,1882239
1352770,1475844,1881997
1352190,1476101,1880634
1352734,1476111,1881039
1352404,1475931,1881798
1352648,1476046,1882707
1352604,1476141,1881385
1353023,1476066,1880507
1353104,1476135,1880648
1353128,1476846,1880768
1352881,1476822,1880164
1353032,1476572,1879932
1353085,1476873,1879216
1353131,1476782,1879033
1353436,1476835,1879578
1353159,1477117,1881406
1352948,1477283,1879584
1353225,1477491,1879889
1353128,1477011,1878225
1353136,1477254,1880063
1353179,1477096,1879542
1353173,1476452,1878942
1353041,1475910,1878826
1352968,1475521,1878181
1353309,1474919,1879917
1353170,1474332,1879055
1353094,1473975,1878885
1352883,1473140,1880497
1352796,1472761,1878587
1352515,1472465,1879924
1352420,1472347,1879198
1352107,1472653,1879169
1351892,1472371,1880289
1351892,1472286,1880361
1351889,1472013,1880441
1352066,1472312,1880909
1351934,1472378,1880956
1351707,1472050,1880874
1351618,1471712,1881708
1351482,1471754,1879948
1351254,1472444,1879895
1351381,1472162,1880948
1351276,1472752,1881833
1351659,1472746,1880812
1351280,1472512,1882832
1351210,1472622,1881772
1351291,1472478,1880482
1351433,1472675,1880117
1351480,1472588,1881938
1351350,1472495,1881468
1351279,1472460,1881305
1351234,1472721,1880550
1351209,1472752,1880159
1351210,1473356,1880583
1351073,1473784,1880027
1351124,1474385,1881387
1351189,1474468,1879578
1351273,1474567,1879061
1351144,1474981,1879118
1351070,1474956,1879969
1350806,1475250,1879660
1350965,1475261,1881167
1351155,1475263,1879772
1351321,1475714,1879333
1351325,1475347,1880152
1351207,1475439,1880162
1351181,1475628,1879414
1351323,1475910,1879222
1351345,1475774,1878781
1351644,1475718,1878740
1351787,1475893,1877604
1351796,1475784,1878413
1351798,1476033,1880084
1351849,1476184,1880592
1351801,1476371,1880263
1351790,1476242,1879714
1351790,1476262,1879606
1351536,1476244,1877405
1351787,1476189,1879437
1351771,1476073,1879033
1351931,1476079,1879379
1352046,1475551,1881417
1351930,1475774,1881024
1352068,1475694,1879843
1352100,1475733,1881692
1352178,1475933,1882688
1352334,1476011,1882558
1352252,1475716,1881638
1352105,1475613,1881437
1352231,1475659,1881505
1352406,1475978,1882232
1352708,1476193,1880168
1352778,1476335,1881761
1352745,1476345,1881997
1352685,1476252,1881715
1352570,1476500,1881201
1352583,1476279,1881696
1352424,1476278,1880741
1352254,1475891,1881536
1352254,1475861,1881461
1352284,1475585,1882766
1352052,1475454,1881647
1351989,1474802,1882395
1351890,1474495,1883296
1351789,1474468,1883759
1351730,1474390,1882573
1351638,1474539,1881569
1351689,1474578,1881833
1351469,1474781,1883380
1351400,1474202,1883410
1351177,1473947,1881695
1351201,1474072,1882420
1351055,1474115,1881503
1351208,1474148,1882582
1351203,1474165,1880999
1351364,1474171,1880670
1351141,1474071,1880515
1351123,1474295,1881048
1350897,1474169,1882264
1351334,1474633,1881869
1350800,1474729,1882741
1350800,1474617,1882244
1350845,1474806,1882989
1350797,1474804,1882165
1350804,1474513,1882289
1350781,1474375,1882511
1350692,1474050,1883389
1350480,1474442,1884180
1350565,1474555,1883473
1350515,1474553,1884139
1350374,1474686,1882778
1350373,1474713,1883778
1350426,1474509,1884547
1350356,1474537,1882978
1350445,1474428,1883335
1350507,1474696,1885049
1350915,1474800,1883371
1350598,1474771,1883447
1350745,1474728,1885409
1350800,1474984,1884356
1351002,1475336,1885332
1350757,1475284,1884520
1350695,1475763,1884877
1350470,1475611,1884052
1350470,1475594,1885142
1350779,1475806,1886148
1350682,1475723,1885159
1350774,1475616,1884399
1350565,1475493,1885027
1350796,1475519,1884678
1350612,1475877,1883636
1350741,1475928,1884541
1350764,1475917,1884505
1350950,1475928,1883848
1350927,1475468,1887165
1351053,1475456,1885823
1350964,1475167,1885113
1351122,1475681,1886897
1351310,1475821,1884309
1351499,1475831,1883855
1351478,1475961,1885147
1351452,1475547,1883434
1351520,1475428,1883504
1351498,1475387,1883247
1351453,1475421,1882734
1351549,1475429,1883164
1351549,1475441,1884353
1351547,1475641,1886797
1351582,1475720,1884217
1351604,1475577,1884189
1351710,1475207,1883216
1351873,1474922,1883416
1351831,1475022,1883345
1351656,1475442,1883884
1352074,1475692,1883043
1352329,1475657,1883270
1352217,1474613,1888362
1351998,1473807,1884719
1351988,1473493,1884993
1351558,1472739,1884335
1351528,1472689,1883597
1351429,1472350,1883277
1351500,1472845,1884054
1351076,1473000,1883848
1351198,1472805,1883865
1351281,1472830,1884124
1351172,1473104,1884568
1351102,1472809,1883756
1351295,1472865,1884878
1351265,1472637,1883689
1351234,1473050,1881944
1351147,1472715,1882739
1350785,1473129,1884568
1350876,1473151,1883623
1350925,1472843,1883627
1351113,1473048,1883489
1350821,1473317,1884394
1350544,1473430,1883536
1350818,1473015,1883965
1350646,1472926,1884388
1350659,1472994,1883976
1350337,1473111,1884749
1350761,1472905,1885506
1350600,1472610,1884486
1350745,1472955,1884801
1350838,1473217,1885088
1350968,1473201,1883912
1351243,1473149,1883942
1351099,1472986,1884095
1351061,1472993,1883871
1351015,1473170,1884190
1350896,1473070,1885444
1351008,1473235,1884237
1350842,1473509,1885401
1350842,1473459,1884553
1350935,1473366,1885584
1351077,1473692,1884567
1351141,1473850,1885447
1351180,1473739,1885629
1350993,1473389,1886835
1351155,1473211,1886488
1351251,1473134,1886390
1351260,1473100,1886169
1351282,1473221,1885879
1351390,1472846,1887945
1351149,1472682,1885219
1351426,1472900,1886561
1351357,1472858,1886028
1351425,1473018,1886124
1351577,1472854,1885223
1351435,1473133,1887320
1351653,1472955,1887301
1351662,1473091,1888387
1351571,1473646,1887584
1351627,1473729,1886597
1351497,1473942,1886899
1351497,1473700,1887921
1351903,1473575,1888532
1351642,1473795,1887150
1351495,1474040,1887484
1351573,1473818,1887426
1351662,1473610,1886898
1351701,1473813,1888532
1351728,1473774,1887273
1351773,1473786,1886811
1352214,1473923,1886713
1352015,1473814,1886790
1351814,1473766,1885255
1351912,1473638,1886244
1352050,1473928,1888428
1352240,1474196,1886946
1352553,1474545,1886592
1352617,1474800,1885973
1352423,1474525,1885693
1352681,1474783,1885476
1352575,1474785,1887284
1352627,1474930,1885384
1352488,1474963,1886210
1352488,1474641,1885204
1352267,1474634,1885920
1352390,1474204,1886060
1352407,1473829,1886628
1352469,1473690,1886217
1352194,1473090,1887012
1352238,1473000,1886699
1351980,1473506,1884607
1352000,1473027,1884699
1351948,1473062,1885718
1351868,1473447,1885791
1351854,1472980,1884966
1351613,1472647,1885369
1351684,1472898,1885254
1351620,1473180,1885071
1351909,1473387,1885219
1351929,1473346,1885214
1351776,1473304,1887079
1351810,1473444,1885939
1351967,1473880,1885323
1352095,1473842,1886374
1351826,1473927,1884387
1351646,1474208,1884435
1351646,1473970,1886018
1351795,1473829,1886373
1351859,1474120,1886712
1351905,1474023,1885937
1352006,1473675,1886098
1351742,1473334,1886359
1351943,1473216,1885807
1351717,1473501,1884921
1351660,1473352,1885920
1351712,1473421,1884472
1351774,1473156,1885332
1351645,1472989,1884630
1351579,1473034,1883783
1351476,1472873,1884627
1351494,1472805,1884424
1351745,1472924,1884687
1351795,1472879,1884465
1351704,1472512,1885032
1351817,1473006,1884402
1351827,1472999,1885889
1351753,1473693,1884713
1351702,1473760,1885329
1351702,1473632,1885785
1351817,1473639,1886078
1351829,1473650,1885372
1351930,1473786,1886516
1351838,1473536,1886471
1351927,1473427,1885785
1351855,1473577,1886951
1352167,1473883,1886265
1352086,1473815,1887276
1352174,1474165,1886626
1352141,1473957,1886146
1352016,1473673,1886230
1352133,1473767,1886420
1352096,1473969,1887304
1352170,1474048,1887134
1352457,1474193,1886939
1352573,1474313,1887922
1352502,1474180,1886654
1352358,1474163,1888567
1352506,1474231,1887993
1352465,1474589,1886805
1352437,1474665,1889042
1352437,1474573,1886916
1352443,1474817,1887436
1352598,1474528,1888177
1352634,1474644,1887995
1352815,1474765,1888103
1352744,1474639,1886879
1352735,1474496,1887057
1352715,1474825,1887826
1352958,1474641,1886341
1353000,1475066,1887605
1353039,1475315,1886837
1353077,1475003,1886738
1352934,1475081,1886792
1353155,1475164,1886885
1353253,1475254,1886901
1353572,1474867,1886944
1353580,1475019,1886566
1353687,1474970,1887047
1353824,1475033,1885533
1353791,1475302,1887865
1353824,1475591,1887699
1353769,1475992,1886387
1353722,1475815,1887262
1353722,1476159,1886789
1353634,1476120,1888019
1353908,1476183,1888994
1353948,1475885,1886948
1353949,1475892,1887322
1353700,1475502,1886665
1354107,1475813,1886989
1354096,1475466,1886250
1354072,1475358,1887406
1354064,1474832,1887692
1353870,1474402,1886731
1353859,1473758,1886533
1353704,1473938,1886900
1353530,1473849,1887300
1353540,1473969,1888041
1353705,1474194,1887586
1353964,1474430,1887714
1353995,1474648,1887141
1353766,1474712,1889319
1353805,1474421,1887956
1353774,1474587,1886440
1353872,1474397,1887919
1353927,1474487,1888863
1353788,1474355,1889426
1353793,1474282,1887856
1353564,1474405,1886789
1353357,1474479,1888249
1353544,1474503,1888485
1353903,1474601,1888485
1353869,1474734,1887583
1353857,1474427,1888500
1353891,1474646,1887298
1353792,1474667,1888431
1353810,1474752,1887817
1353767,1474999,1888109
1353534,1474893,1888642
1353534,1475216,1892258
1353632,1475135,1888633
1353728,1475224,1891227
1353678,1475065,1889092
1354014,1474528,1891357
1353781,1475453,1889341
1353611,1475882,1888404
1353700,1475708,1888090
1353818,1475855,1888007
1353818,1475853,1887799
1353979,1475787,1891010
1353993,1475996,1887673
1353843,1475764,1887914
1353681,1475875,1887375
1353998,1476026,1887136
1354239,1476147,1887470
1354473,1476245,1887214
1354242,1476217,1886492
1354520,1476207,1887417
1354218,1476467,1889609
1354509,1476294,1887573
1354338,1476851,1887786
1354217,1476939,1886406
1354217,1476924,1887081
1354024,1477223,1888028
1354365,1477314,1887895
1354573,1477369,1887553
1354533,1476918,1888088
1354502,1476735,1887957
1354552,1476913,1888729
1354601,1477308,1886287
1354741,1477127,1887015
1354473,1477420,1887358
1354779,1477488,1886249
1354949,1477549,1886424
1354816,1477578,1887084
1355147,1478252,1886578
1355512,1478760,1886213
1355496,1478544,1885787
1355440,1478595,1884865
1355955,1478924,1885282
1355817,1478833,1884562
1356015,1478780,1884284
1356162,1479180,1883757
1355987,1479177,1884300
1355908,1479345,1883740
1355665,1479435,1883874
1355971,1479566,1883275
1356051,1479465,1883825
1356139,1479049,1884609
1356369,1478821,1884776
1356124,1478688,1884471
1355999,1478346,1884175
1356138,1477963,1883232
1356448,1477903,1884459
1356591,1477379,1883433
1356354,1476892,1883235
1356181,1477311,1882383
1356293,1477013,1885479
1356243,1477122,1882050
1356310,1477089,1883333
1355750,1476957,1885197
1355750,1477204,1884199
1355726,1476795,1883473
1355858,1476862,1883520
1355988,1476701,1884117
1355824,1476517,1883139
1355835,1476753,1883456
1355979,1477183,1882321
1355978,1477773,1883782
1356015,1477943,1883261
1356103,1477753,1883539
1356370,1477564,1882456
1356217,1477736,1881221
1356343,1478257,1880965
1356306,1478045,1880772
1356214,1477682,1881638
1356390,1477792,1882018
1356435,1477753,1882121
1356673,1477942,1880727
1356410,1478322,1881196
1356366,1478290,1880869
1356474,1478077,1881046
1356508,1478143,1879658
1356681,1478283,1880629
1356633,1478266,1880503
1356493,1477975,1880379
1356674,1478169,1880876
1356726,1478448,1880684
1356885,1478588,1880862
1357158,1478954,1881255
1357199,1478862,1880526
1357159,1478743,1880458
1357339,1478809,1879703
1357211,1479025,1882325
1357131,1479103,1881655
1356859,1479433,1880225
1356849,1479432,1880488
1356849,1479611,1881209
1356919,1479412,1880436
1357138,1479707,1880139
1357131,1479439,1879886
1357067,1479305,1879605
1357213,1479507,1878111
1357517,1479651,1876471
1357438,1479664,1876939
1357561,1480198,1877510
1357580,1480277,1878181
1357486,1480287,1878858
1357420,1480024,1879596
1357586,1480233,1878473
1357541,1480332,1879147
1357892,1480452,1880363
1357739,1480295,1879255
1358039,1480481,1879326
1358196,1480909,1880172
1358238,1480507,1879166
1358457,1481026,1879266
1358620,1480755,1879136
1358867,1481025,1880663
1358530,1481150,1880557
1358534,1480956,1882102
1358521,1480990,1881146
1358619,1480933,1880285
1358776,1481116,1879224
1358834,1481204,1879796
1358790,1481112,1880513
1358740,1482172,1879935
1359055,1482806,1881047
1358853,1481396,1880572
1358635,1480329,1880173
1358732,1480736,1881001
1358605,1480216,1879875
1358802,1480445,1879088
1358883,1480193,1878678
1358634,1480151,1879130
1358476,1479820,1880792
1358544,1479678,1881050
1358580,1479411,1880612
1358548,1479480,1881014
1358698,1479663,1880470
1358571,1479425,1881277
1358572,1479840,1880469
1358640,1480328,1881113
1358824,1480568,1881618
1358875,1480712,1880053
