GREEN,RED,IR
1753576,2027797,1649057
1753531,2028480,1648585
1753171,2028772,1648673
1753405,2028325,1647155
1753292,2028198,1646506
1753566,2028416,1644737
1753392,2028932,1644648
1753417,2028531,1644057
1752946,2028744,1643941
1753219,2029167,1643891
1752766,2029494,1643153
1753347,2029214,1643644
1752832,2029460,1643977
1753114,2029200,1643576
1753072,2029468,1643870
1753226,2029821,1643201
1752505,2030393,1642593
1752936,2030766,1642547
1752633,2030793,1641765
1752633,2030386,1641568
1752981,2030092,1641489
1752979,2030437,1641089
1753085,2030170,1640496
1752804,2029125,1640489
1753027,2028466,1639463
1752844,2027526,1639423
1752802,2027273,1639414
1752525,2027567,1639130
1752570,2026979,1638468
1752308,2026741,1638938
1752478,2026348,1639113
1751974,2026263,1638802
1751890,2026435,1640484
1752206,2026419,1640265
1752391,2025813,1639197
1751813,2025868,1638621
1751820,2025179,1638641
1751932,2025235,1638010
1752118,2024969,1638495
1751775,2025536,1638099
1751172,2025592,1637974
1751172,2025452,1637157
1751301,2025222,1638281
1751195,2025685,1637904
1751216,2025493,1637919
1751268,2024999,1637857
1751248,2024458,1637642
1751206,2024829,1637378
1750886,2025016,1637761
1751167,2024607,1637753
1750995,2025144,1637906
1750881,2024130,1636935
1750778,2024484,1637403
1750471,2023958,1637065
1750745,2024053,1636944
1750603,2023396,1637334
1750848,2023993,1637326
1751105,2023851,1637914
1751171,2023517,1637849
1750555,2023058,1638965
1750941,2023581,1638384
1750766,2023697,1637937
1750495,2024011,1638330
1750100,2023818,1638670
1750100,2023897,1637942
1750227,2023462,1638093
1750318,2024198,1639238
1750452,2023420,1639393
1750200,2023920,1639157
1750419,2023535,1639102
1750083,2023179,1639069
1751039,2024158,1640026
1750202,2023663,1639359
1750045,2024090,1639604
1750039,2023111,1639832
1751025,2023303,1639414
1749927,2022528,1640594
1749636,2022598,1640128
1750116,2022044,1638796
1750265,2022669,1639422
1750163,2022101,1639367
1750255,2022394,1639713
1750028,2022025,1639166
1749878,2022066,1639188
1749926,2021938,1640290
1749868,2022653,1640082
1749868,2021697,1639424
1749626,2022516,1638917
1749538,2022057,1639320
1749685,2022446,1640042
1749908,2021901,1640110
1749851,2021690,1640049
1749808,2021391,1639283
1749670,2020939,1639474
1750045,2020874,1639374
1749887,2020336,1639443
1750039,2020837,1638974
1750150,2020097,1638978
1749833,2019969,1638885
1749743,2020025,1638882
1750097,2020268,1639037
1750301,2019790,1637570
1750206,2020097,1637770
1750005,2019518,1637204
1749812,2019303,1638079
1749946,2019215,1637508
1750057,2019336,1638036
1749742,2019230,1636761
1749456,2019476,1636503
1749456,2018654,1636592
1749383,2018870,1637020
1749300,2018525,1637697
1748956,2018793,1637815
1749280,2018530,1637246
1749006,2018516,1636751
1748792,2018610,1636371
1748293,2018758,1637149
1748517,2018691,1637740
1748623,2018446,1637234
1748554,2018657,1637340
1748490,2018099,1638224
1748417,2018306,1638430
1748344,2018435,1638264
1748219,2018772,1637338
1748660,2018447,1637850
1748629,2018506,1637381
1748658,2018157,1637638
1748570,2018598,1638307
1748340,2018224,1638079
1748572,2018510,1638919
1748128,2018010,1638298
1748011,2018674,1638275
1748011,2018138,1638758
1747947,2018343,1638369
1747912,2018471,1638150
1747985,2018394,1638973
1747856,2017830,1638012
1747778,2017412,1638417
1747516,2017594,1638055
1747463,2017691,1638372
1747606,2017901,1638273
1747449,2017711,1637934
1747305,2018078,1637474
1747200,2017543,1638078
1746960,2018249,1638387
1747057,2018040,1638017
1747378,2018138,1638139
1747421,2017733,1638116
1747134,2018018,1637912
1747200,2017414,1637505
1747120,2017670,1638158
1747308,2017575,1636819
1747308,2017829,1637351
1746858,2017285,1637203
1746858,2017384,1637642
1746915,2017287,1636201
1746619,2016866,1636946
1747068,2017026,1637029
1747104,2017065,1637382
1746960,2016085,1637011
1746463,2016131,1637322
1746706,2016409,1637636
1746697,2016605,1638179
1746892,2016810,1637437
1746689,2016504,1637038
1746782,2016560,1636926
1746544,2016248,1637918
1746611,2016895,1637024
1746586,2016761,1637311
1747148,2016931,1636711
1746894,2016448,1636744
1746874,2016512,1636166
1747171,2016382,1635930
1746958,2016555,1636901
1747042,2016452,1635699
1747126,2016970,1635235
1746534,2016903,1635158
1746534,2017082,1634404
1746671,2016437,1634474
1746829,2016691,1635151
1746733,2016577,1634914
1746783,2016526,1634983
1746816,2015787,1634117
1746640,2015269,1634260
1746487,2015155,1634274
1746376,2014648,1634779
1746646,2014526,1633788
1746196,2013888,1634516
1746267,2013352,1633916
1746077,2013234,1634103
1746140,2013359,1634540
1745955,2012992,1635874
1746340,2012824,1636000
1746066,2012763,1636688
1746189,2012219,1637010
1746031,2012212,1636421
1746078,2011964,1636814
1745933,2012116,1636255
1745907,2011966,1636521
1745684,2011732,1636265
1745684,2011562,1635987
1745747,2011045,1636013
1745774,2011050,1635706
1745845,2010924,1635983
1745757,2010348,1635736
1745770,2010386,1636216
1745953,2010458,1635884
1745747,2010464,1635363
1745606,2010253,1635935
1745633,2010455,1635798
1745573,2010276,1635208
1745494,2009645,1635525
1745367,2009871,1634987
1745335,2009413,1635529
1745741,2009775,1635040
1745579,2009322,1635016
1745441,2009283,1635186
1745534,2009079,1635053
1745484,2009462,1634941
1745410,2009754,1634247
1745211,2010435,1634443
1745030,2010185,1633898
1745030,2010299,1633851
1744682,2010437,1633783
1745063,2010316,1633914
1744953,2010280,1634032
1744831,2010477,1634632
1744614,2009942,1634102
1744680,2010406,1634277
1744574,2010311,1634454
1744720,2010271,1635580
1744675,2010479,1635138
1744484,2009954,1634951
1744313,2009896,1635818
1744317,2010006,1636515
1744397,2010441,1636944
1744401,2009974,1637044
1744773,2010175,1637813
1744610,2009723,1637393
1744590,2009836,1636585
1744416,2009880,1636062
1744651,2010125,1635503
1744664,2010122,1634556
1744390,2010250,1635138
1744146,2009710,1635537
1744146,2009769,1634375
1744273,2009394,1634390
1744126,2009608,1634283
1744317,2009718,1634145
1744445,2009249,1634321
1744524,2008714,1633840
1744216,2009083,1633759
1744218,2009747,1633800
1744382,2009439,1634100
1744264,2010231,1633812
1744209,2010030,1634166
1744226,2010223,1633858
1743990,2009786,1633483
1744012,2010433,1634532
1744209,2010420,1634369
1744397,2010730,1634704
1744309,2010708,1635073
1744330,2010631,1635128
1744181,2010396,1636112
1744467,2010752,1636229
1744332,2010762,1636894
1743741,2010379,1636312
1743741,2009546,1635925
1743583,2009598,1636159
1743566,2009001,1635867
1743489,2009331,1636249
1743440,2008771,1636340
1743538,2008723,1636501
1742960,2009049,1636148
1742773,2009137,1635922
1742782,2009559,1636506
1742734,2009455,1636495
1742857,2010062,1635485
1742488,2009808,1634991
1742400,2009259,1636103
1742377,2009078,1636513
1742696,2009206,1636016
1742756,2008870,1636155
1742550,2008829,1636506
1742525,2008484,1636160
1742395,2008847,1636318
1742507,2008633,1636454
1742419,2009022,1636029
1742237,2008890,1635821
1741852,2009255,1635811
1741852,2008806,1634752
1741928,2009360,1635724
1742048,2009041,1635099
1742234,2009189,1635854
1741859,2008586,1635689
1741869,2008668,1636058
1741759,2008541,1635630
1741747,2008735,1636629
1741829,2009429,1637213
1741662,2009351,1638110
1741439,2009475,1637935
1741357,2009025,1639109
1741302,2009755,1638648
1741456,2009251,1638273
1741688,2010075,1637762
1741463,2010125,1638028
1741433,2010361,1638505
1741472,2010095,1638508
1741091,2010821,1638961
1741212,2010669,1638769
1741203,2011513,1639479
1740735,2010923,1638543
1740735,2011216,1638526
1740834,2011116,1638671
1740801,2010829,1639455
1740970,2010971,1639669
1740678,2010719,1640994
1741002,2010026,1640151
1740784,2010857,1639607
1741088,2011186,1639595
1740875,2010867,1640716
1741057,2010957,1640530
1741034,2010759,1640449
1740967,2010426,1640112
1740723,2009801,1640591
1740969,2010535,1641436
1740884,2010064,1642983
1741281,2010441,1644099
1741106,2010383,1643871
1741313,2010308,1644143
1741170,2009684,1643345
1741228,2010572,1644046
1741387,2010292,1644140
1741277,2010904,1644319
1740736,2010278,1644317
1740736,2010568,1644456
1741127,2009956,1643741
1741237,2010754,1643128
1740945,2010821,1642420
1741146,2010742,1642572
1741108,2010413,1642738
1741261,2010679,1642578
1741229,2011143,1642425
1741045,2010973,1642343
1741246,2011294,1642256
1741144,2010090,1642433
1741004,2009827,1641857
1740687,2009334,1642357
1740809,2009549,1642207
1741091,2009084,1643153
1741068,2009304,1642372
1740811,2008793,1641703
1740743,2009253,1641903
1740556,2008901,1642253
1740429,2009338,1642481
1740415,2009912,1642197
1739979,2010245,1642723
1739979,2009992,1643140
1739791,2010574,1642833
1739878,2010467,1643230
1739725,2011081,1643226
1739810,2010625,1642369
1739790,2010332,1642516
1739705,2010387,1643155
1739452,2010311,1643287
1739465,2010286,1643806
1739659,2010050,1643508
1739430,2010325,1643345
1739307,2009772,1642540
1739081,2010102,1642582
1739156,2010007,1643085
1739487,2010300,1642649
1739483,2010226,1642952
1739494,2010176,1642244
1739274,2009659,1642065
1739507,2009709,1642292
1739117,2009618,1642505
1739034,2010077,1642299
1739126,2009906,1642785
1738877,2010300,1642942
1738877,2010327,1642572
1738858,2010569,1642847
1738886,2010049,1642436
1738806,2010468,1643065
1738779,2009871,1642773
1738665,2009794,1643136
1738599,2010425,1642663
1738490,2010722,1643110
1738613,2010732,1644208
1738465,2011022,1644349
1738743,2010735,1644201
1738387,2010230,1644398
1738347,2009986,1644638
1738410,2010134,1645705
1738306,2010208,1646064
1738588,2010257,1645441
1738564,2010629,1645515
1738364,2010645,1645835
1738455,2011159,1645550
1738460,2011244,1645812
1738366,2011542,1645556
1738115,2012305,1645589
1738115,2012470,1645271
1737842,2012480,1645270
1737925,2012314,1644269
1738016,2012355,1644591
1737995,2012373,1644904
1737942,2012013,1644544
1737935,2012130,1644664
1738182,2012665,1643670
1738135,2012932,1643400
1738404,2013075,1643594
1738579,2013368,1644509
1738592,2013037,1644398
1738291,2013138,1643077
1738342,2013038,1643599
1738599,2013344,1643751
1738631,2013730,1643633
1738519,2013448,1643803
1738664,2013694,1644139
1738789,2013823,1643643
1738721,2013596,1643948
1738770,2013514,1644222
1738643,2013433,1644878
1738346,2013277,1644418
1738346,2012941,1644369
1738345,2012829,1644576
1738348,2012576,1645252
1738377,2012883,1645344
1737961,2012786,1645179
1738119,2012149,1645099
1737865,2012421,1644979
1737553,2012819,1644625
1737379,2013509,1644968
1737554,2014000,1644740
1737440,2014233,1644751
1737327,2014294,1644449
1737145,2014194,1644297
1736947,2014427,1645171
1736950,2014372,1644688
1737283,2014400,1643959
1737313,2014685,1644436
1737314,2014598,1644046
1737118,2014901,1643928
1737224,2015436,1643877
1737094,2015811,1644293
1737112,2015953,1644717
1736744,2016423,1643986
1736744,2016224,1643256
1736821,2016344,1643401
1736759,2016455,1643645
1736920,2016973,1643547
1736759,2016561,1643682
1736851,2016950,1643525
1736543,2017037,1642945
1736460,2017055,1643193
1736311,2017369,1643959
1736119,2017259,1644485
1736195,2017583,1643843
1736215,2017663,1644092
1735972,2017901,1644616
1736104,2017901,1644161
1736032,2018175,1644359
1736272,2018148,1644025
1736213,2018683,1644683
1736349,2018376,1644347
1736202,2018549,1644052
1736279,2018856,1644664
1736031,2019469,1644694
1735621,2019164,1644939
1735621,2019385,1644497
1735762,2019609,1644105
1735718,2020052,1643960
1735732,2020156,1644102
1735715,2020139,1645345
1735682,2019600,1645181
1735429,2019813,1644759
1735637,2020434,1645154
1735648,2020059,1645371
1735599,2021044,1645469
1735357,2020904,1645441
1735381,2020905,1644898
1735143,2020458,1644541
1735344,2020680,1644475
1735576,2020452,1644561
1735989,2020942,1643306
1735675,2020843,1642989
1735793,2021038,1643395
1735746,2020908,1643318
1735610,2021677,1643923
1735891,2021840,1643364
1735504,2022306,1644271
1735504,2021952,1644021
1735358,2022388,1643914
1735485,2022023,1644211
1735540,2022900,1643886
1735490,2022052,1644193
1735673,2021995,1645129
1735474,2021955,1645187
1735278,2021633,1645440
1735298,2021793,1645572
1735002,2021466,1646101
1735110,2022207,1645744
1734882,2021385,1644445
1734462,2021733,1644713
1734454,2021603,1645156
1734571,2022423,1645065
1734370,2022334,1645172
1734397,2023070,1645067
1734320,2022697,1644553
1734237,2023074,1644880
1734000,2022881,1645399
1734455,2023191,1645816
1733930,2023359,1645163
1733794,2023834,1645623
1733794,2023357,1645039
1733601,2023555,1645138
1733956,2023402,1645152
1733833,2023590,1644970
1733845,2022744,1645210
1733680,2022808,1645547
1733626,2022557,1645317
1733520,2022654,1645680
1733774,2022043,1645509
1733659,2021379,1645863
1733827,2020978,1645445
1733645,2019621,1645116
1733587,2019624,1643984
1733646,2019118,1644673
1733914,2019302,1644012
1733943,2018589,1644593
1733772,2018542,1644422
1733613,2017462,1644335
1733857,2017650,1645104
1733825,2017362,1643830
1733800,2018008,1644425
1733490,2017522,1644105
1733490,2017501,1645219
1733315,2016915,1644629
1733289,2017022,1644739
1733555,2016770,1644333
1733305,2016955,1644986
1733473,2016295,1644151
1733275,2016319,1645089
1733072,2016925,1644638
1733162,2016369,1644430
1733289,2016404,1644908
1733136,2016074,1644086
1733218,2015790,1644449
1732958,2015287,1644801
1733185,2015603,1644903
1733077,2014910,1644976
1733547,2015078,1645632
1733282,2014417,1645569
1733313,2014377,1645298
1733225,2014018,1644937
1733615,2014251,1644865
1733413,2014307,1643926
1733192,2014719,1644546
1732909,2013789,1644186
1732909,2013769,1644747
1733106,2012984,1644853
1733148,2012858,1644109
1733280,2012387,1643993
1733248,2011877,1644528
1733292,2011217,1645305
1733412,2011062,1644957
1733428,2011306,1644486
1733376,2010990,1644266
1733401,2010747,1644146
1733301,2010031,1643292
1733451,2009393,1641879
1733464,2009375,1641383
1733672,2009110,1640738
1733812,2008635,1640385
1733694,2008055,1640537
1733328,2007259,1639849
1733541,2006665,1639702
1733420,2006188,1638795
1733732,2005859,1639595
1733278,2005296,1638917
1733022,2004818,1638717
1733022,2004348,1638049
1732819,2003855,1638376
1732799,2002847,1638068
1732744,2002343,1638928
1732632,2001789,1637859
1732439,2001409,1637982
1732190,2001090,1637709
1732044,2001091,1637096
1731966,2000841,1636334
1731912,2000828,1636805
1731920,2000310,1636751
1731642,1999847,1637004
1731762,1999788,1635704
1731587,1999761,1636316
1731902,1999728,1636200
1731631,1999035,1635694
1731813,1998696,1635298
1731433,1997976,1635688
1731384,1998037,1635734
1731390,1997388,1635280
1731300,1996787,1635389
1730959,1996502,1636016
1730959,1995685,1636107
1731091,1994678,1636164
1730810,1994035,1635548
1731106,1993321,1635186
1730887,1992943,1635611
1730811,1991924,1635516
1730743,1991546,1635652
1730572,1991455,1635737
1730422,1990959,1635831
1730347,1990650,1635240
1730391,1989926,1635025
1730202,1988730,1635766
1729899,1988464,1636654
1730098,1987976,1636192
1730068,1987472,1636868
1730258,1987119,1636823
1730227,1986638,1637018
1730159,1985851,1637295
1729958,1985635,1635710
1730071,1985623,1635534
1729988,1985156,1635407
1729943,1984848,1636294
1729943,1984226,1636397
1729402,1983969,1636708
1729576,1983052,1636765
1729585,1982715,1636562
1729624,1982065,1636127
1729526,1981311,1636185
1729404,1981103,1635871
1729386,1980701,1635143
1729333,1980731,1635694
1729189,1980711,1634948
1729446,1980471,1635038
1729360,1979455,1634526
1729371,1978425,1634316
1729150,1978076,1633849
1729425,1977477,1633612
1729649,1977326,1633576
1729568,1976896,1633671
1729455,1976594,1634090
1729618,1976268,1634096
1729708,1976390,1633861
1729687,1975723,1633389
1729235,1975627,1634717
1729086,1975283,1634136
1729086,1975105,1634656
1729192,1975023,1634204
1729159,1974838,1634025
1729235,1974757,1633598
1729196,1973966,1633435
1729245,1973126,1633829
1729043,1972715,1634252
1729054,1972868,1633832
1729040,1972265,1634037
1728984,1972615,1634013
1728863,1971977,1633719
1728531,1971530,1634315
1728226,1971389,1634832
1728190,1971277,1634130
1728185,1971655,1634873
1728035,1972143,1635783
1727892,1972368,1636494
1727964,1972073,1638396
1727805,1971830,1638068
1727361,1971389,1638673
1727375,1971341,1639767
1726985,1970941,1640133
1726985,1970707,1640719
1726863,1970396,1641863
1726889,1969998,1641459
1726886,1969725,1641497
1726814,1969273,1640805
1726878,1968143,1640453
1726497,1966680,1641258
1726517,1966529,1641874
1726500,1965804,1641318
1726385,1965452,1641221
1726217,1964912,1641404
1726324,1963583,1641907
1726071,1962769,1641805
1726033,1962300,1641345
1726135,1961522,1641477
1726247,1961169,1642165
1726075,1960617,1641226
1725914,1960155,1640486
1726088,1960049,1640310
1726081,1960084,1640426
1726000,1959804,1640066
1725801,1959352,1639900
1725380,1958975,1639792
1725380,1958962,1640109
1725347,1958913,1641518
1725240,1959110,1640552
1725396,1958874,1641052
1725389,1958753,1640515
1725111,1958343,1640579
1724758,1957864,1640966
1724733,1957618,1640709
1724906,1956899,1639989
1724917,1956397,1640222
1724919,1955836,1639732
1724812,1955305,1640699
1724788,1955268,1639976
1724627,1954894,1640702
1725185,1954219,1639526
1724920,1953722,1639623
1724725,1953063,1639222
1724835,1952384,1638393
1724717,1951665,1638445
1724759,1951024,1638377
1724342,1951039,1638678
1724308,1950350,1638782
1724308,1949856,1639052
1724315,1949361,1638739
1724396,1948626,1639203
1724680,1948560,1638204
1724668,1948282,1638640
1724382,1947278,1638898
1724547,1945587,1638968
1724500,1945436,1638928
1724616,1944685,1639425
1724785,1944354,1638077
1724796,1943511,1638591
1724694,1942625,1637039
1724510,1941795,1638513
1724726,1941429,1638418
1724717,1941251,1638042
1725171,1940367,1638012
1724863,1939352,1638282
1724927,1938342,1637632
1724713,1937327,1637685
1725021,1937029,1637568
1724854,1936532,1636908
1724557,1936533,1637587
1724063,1936008,1637365
1724063,1935629,1638230
1724083,1934983,1638283
1723825,1935002,1638577
1723953,1934479,1638319
1723630,1933730,1638553
1723428,1933276,1638501
1722535,1933171,1638771
1722722,1933408,1638736
1722626,1933113,1639048
1722659,1932840,1638618
1722498,1931950,1638604
1722509,1930725,1638879
1721970,1930118,1639185
1722066,1929263,1638044
1721959,1928379,1638443
1722277,1927644,1638881
1722194,1927142,1639871
1722125,1926266,1639198
1721905,1925588,1640338
1722067,1925156,1641327
1721303,1924967,1641580
1721365,1924969,1641715
1721365,1924378,1641273
1721074,1923775,1641685
1721343,1923229,1641763
1721182,1922748,1641903
1721006,1921650,1641364
1720821,1920721,1642120
1720958,1919533,1641911
1720781,1919111,1642372
1720783,1918527,1642487
1720563,1918070,1642992
1720567,1917474,1642430
1720400,1916154,1643554
1720353,1915509,1644144
1720201,1915649,1644911
1720281,1915422,1644018
1720593,1915205,1643349
1720389,1914526,1643097
1720228,1914152,1643545
1720375,1913926,1644097
1720170,1913645,1642732
1720439,1912786,1643416
1720017,1912017,1642809
1719679,1911346,1642296
1719679,1910659,1641895
1719514,1910174,1643018
1719767,1909566,1643056
1719640,1908938,1644165
1719714,1908214,1643005
1719531,1907481,1642066
1719576,1906660,1641767
1719516,1905980,1641313
1719533,1904966,1641284
1719439,1904207,1641156
1719485,1903127,1640966
1719280,1902256,1641145
1719370,1901316,1641686
1719418,1900479,1641660
1719730,1899921,1641236
1719441,1898946,1641951
1719469,1898142,1641255
1719339,1897760,1641290
1719284,1897686,1641091
1719272,1897655,1641506
1719324,1898231,1641203
1718934,1898768,1640707
1718934,1898693,1640897
1719177,1898425,1641368
1719098,1897385,1640737
1719090,1896914,1640912
1719109,1896698,1640427
1719232,1896195,1640537
1719157,1896473,1640276
1719044,1896413,1640671
1719044,1895899,1640352
1719133,1895477,1639747
1718995,1894536,1639262
1718933,1893827,1639486
1718417,1893698,1640594
1718240,1893784,1639793
1718289,1893504,1639187
1718575,1893385,1639452
1718405,1893099,1639530
1718140,1892308,1639992
1717747,1891920,1640139
1717678,1892079,1639958
1717739,1892169,1640520
1717482,1892631,1639540
1717482,1893086,1639738
1716922,1893007,1639139
1717183,1892828,1639015
1717129,1892254,1639000
1717136,1891712,1638165
1717019,1890872,1638069
1716821,1889953,1637853
1716640,1889041,1637474
1716633,1888610,1638273
1716517,1888037,1637749
1716606,1887253,1637375
1716363,1886487,1637160
1716475,1885783,1638171
1716069,1885376,1638964
1716263,1884901,1637770
1716405,1883976,1637654
1716663,1883685,1638096
1716166,1883575,1637355
1716186,1883553,1637954
1716100,1883661,1636802
1716410,1884131,1637407
1716232,1884841,1636377
1715884,1884642,1636414
1715884,1884251,1636649
1715908,1884290,1635876
1715649,1884208,1635933
1715630,1884292,1636096
1715583,1884059,1636306
1715722,1883748,1636210
1715554,1884421,1636431
1715287,1884676,1636835
1715537,1885026,1636273
1715433,1885376,1635966
1715206,1885553,1635655
1715130,1885384,1635080
1715037,1885696,1635112
1715220,1886112,1635402
1715472,1886422,1634538
1715547,1886820,1634994
1715470,1886475,1634663
1715547,1885958,1634771
1715551,1885867,1635193
1715379,1885838,1634662
1715196,1885567,1634640
1715119,1885800,1634149
1715098,1885606,1633264
1715098,1885879,1633982
1714917,1885750,1633706
1714976,1885796,1634502
1715132,1886052,1634016
1715080,1886414,1634372
1715180,1886319,1633929
1715133,1886813,1634266
1715044,1887359,1634399
1715007,1887934,1634528
1715284,1887974,1633908
1715335,1888601,1633310
1715426,1888611,1633658
1715261,1888991,1634141
1715364,1889259,1633344
1715625,1889327,1633500
1715643,1889053,1633808
1715696,1889071,1633363
1716074,1889206,1633341
1715864,1889641,1632446
1715896,1890144,1631813
1715689,1890618,1631501
1715732,1890249,1632375
1715732,1889856,1631810
1715610,1889535,1631656
1715852,1889133,1631751
1715871,1889175,1632389
1715774,1888516,1631092
1715827,1887922,1631814
1715637,1887136,1631455
1715603,1887184,1631912
1715592,1886535,1633174
1715503,1886018,1632875
1715396,1885860,1632471
1715222,1885502,1633134
1714846,1884919,1633332
1714954,1885015,1633429
1715178,1885150,1632604
1715211,1884676,1633007
1715234,1883757,1632599
1715064,1883054,1632963
1715139,1882807,1632420
1715227,1882652,1631573
1714937,1882877,1632967
1714837,1883079,1631632
1714837,1883347,1631745
1714344,1883399,1631294
1714344,1883001,1631269
1714758,1883058,1631235
1714633,1882906,1631093
1714829,1882024,1630797
1714841,1881755,1631776
1714843,1880718,1630835
1714752,1880705,1631338
1714804,1880510,1630515
1714714,1879829,1630456
1714715,1879590,1630479
1714380,1879268,1630960
1714620,1879381,1631039
1714523,1879086,1630717
1714991,1879241,1630402
1714841,1879175,1631286
1714769,1879255,1630714
1714598,1878947,1630633
1714765,1879327,1631756
1714449,1879337,1632070
1714502,1880141,1632922
1714146,1880775,1633227
1714146,1880964,1632665
1714286,1881370,1633111
1714161,1881803,1633041
1714392,1881472,1632994
1714095,1881199,1633536
1714268,1880156,1633198
1713914,1880193,1633152
1714296,1880517,1634130
1713998,1880501,1633856
1714123,1880242,1633595
1714155,1879445,1634059
1714117,1878900,1634096
1713986,1878593,1635255
1714160,1878277,1635289
1714269,1877955,1635623
1714435,1877611,1634647
1714440,1877639,1635419
1714618,1877327,1635914
1714390,1877241,1634368
1714606,1877302,1633031
1714273,1877287,1632908
1714221,1876956,1633318
1714221,1876483,1632620
1714063,1876513,1633290
1714352,1876681,1633499
1714364,1876944,1633002
1714368,1876786,1632524
1714291,1876385,1633263
1714222,1875878,1632617
1714293,1877000,1632845
1714503,1877650,1634016
1714422,1878356,1633899
1714183,1878846,1634428
1714367,1879070,1634989
1714558,1878696,1636073
1714350,1878844,1637163
1714587,1879038,1636659
1714892,1879091,1636470
1714926,1879401,1636848
1714819,1879609,1637407
1714992,1879775,1637970
1714920,1879570,1639646
1714974,1879051,1640606
1714611,1878847,1641909
1714289,1879011,1642019
1714289,1878739,1643164
1714342,1878641,1643269
1714197,1878258,1643385
1714055,1878050,1643904
1713987,1877827,1644015
1713809,1877074,1643200
1713587,1876671,1643427
1713425,1876749,1644182
1713548,1876605,1645286
1713313,1876387,1644207
1713449,1875883,1643768
1713210,1875700,1644068
1713176,1875783,1644485
1713120,1875873,1643768
1713236,1875964,1643172
1713565,1875421,1643365
1713531,1874787,1642955
1713436,1874185,1643399
1713275,1873909,1643251
1713287,1873653,1643205
1713481,1874000,1643251
1713294,1874238,1643445
1712969,1874256,1642641
1712969,1873948,1642850
1712762,1873417,1643125
1712849,1873291,1642704
1712813,1872860,1642433
1712724,1872306,1641626
1712817,1872119,1642244
1712605,1872460,1642102
1712454,1872634,1642512
1712321,1872703,1641699
1712293,1871869,1641145
1712471,1871919,1641657
1712032,1871922,1640963
1712032,1872152,1641443
1712256,1871944,1641848
1712547,1871849,1641620
1712240,1871799,1641463
1712411,1871194,1641560
1712344,1871153,1640460
1712413,1871442,1639046
1712335,1871390,1639298
1712189,1871241,1637547
1711850,1871162,1637143
1711850,1871208,1636570
1711958,1870851,1635817
1712029,1871075,1635069
1712075,1870838,1634417
1712081,1870525,1634047
1712050,1870285,1634078
1711824,1869890,1633796
1711868,1869481,1634498
1711986,1869074,1634273
1712022,1869226,1634255
1711964,1868848,1632582
1711751,1868551,1631883
1711785,1868568,1632778
1712120,1868771,1632181
1711978,1868875,1631843
1712354,1869398,1631222
1712328,1869395,1630848
1712547,1869300,1630782
1712453,1869244,1631453
1712522,1869446,1630975
1712356,1870221,1631075
1711993,1870111,1630813
1711993,1870044,1631036
1711846,1870234,1630726
1712281,1869952,1630556
1711909,1870575,1630579
1712256,1870138,1630875
1712056,1869792,1631101
1712018,1869805,1631086
1712074,1869425,1630787
1712049,1869558,1632135
1711960,1869597,1631623
1711881,1869683,1631148
1711707,1869564,1630762
1711642,1869458,1631292
1711449,1869487,1630326
1711468,1869124,1630088
1711575,1868748,1629534
1711711,1868446,1629797
1711684,1868132,1629328
1711791,1868139,1629266
1711506,1868331,1629771
1711349,1868385,1629076
1711270,1868693,1628626
1711136,1868548,1627923
1711136,1868440,1628238
1710964,1867863,1627912
1711323,1867119,1628463
1711223,1866724,1627696
1711335,1866604,1628406
1711052,1865761,1628002
1711407,1865259,1628143
1711316,1865003,1628130
1711364,1864291,1628277
1711419,1863952,1628162
1711404,1863911,1628020
1711393,1863876,1628121
1711307,1863439,1628714
1711338,1863247,1627782
1711305,1863151,1627316
1711698,1862870,1627549
1711546,1862356,1627906
1711451,1862275,1627946
1711249,1862057,1627613
1711379,1862344,1627425
1711360,1862506,1627874
1711088,1862939,1627681
1710653,1863149,1627883
1710653,1862919,1628357
1710746,1863237,1627843
1710733,1863914,1628695
1710968,1864157,1628216
1710773,1863839,1628029
1710813,1863969,1627950
1710599,1865679,1627550
1710867,1866400,1627321
1710941,1866641,1627814
1710781,1866736,1628405
1710915,1866095,1628583
1710780,1865623,1627955
1710366,1865274,1628157
1710701,1865458,1628322
1711003,1865274,1628030
1711262,1865103,1627306
1710873,1864453,1628448
1711150,1863798,1628439
1710895,1863673,1629523
1711072,1863433,1628035
1711069,1863417,1627772
1710803,1863291,1628377
1710803,1863068,1627805
1710731,1863256,1628987
1711059,1863274,1629111
1710854,1863627,1629301
1710876,1864029,1628868
1710942,1863649,1627952
1711157,1862999,1628536
1711202,1862957,1627319
1711230,1862459,1627408
1711155,1862581,1628576
1711041,1862735,1628328
1711011,1862800,1628766
1710970,1862868,1628237
1710970,1862378,1629342
1711234,1861878,1629151
1711198,1861507,1628744
1711340,1861071,1628647
1711304,1860703,1629044
1711545,1861124,1629520
1711342,1862179,1629277
1711513,1863328,1629986
1711151,1863946,1630276
1710721,1864369,1630958
1710721,1864807,1630429
1710916,1865196,1630669
1710995,1865643,1630136
1710777,1865438,1630787
1710952,1865189,1631268
1710670,1865166,1630675
1710638,1864117,1630775
1710490,1863448,1631965
1710614,1862954,1632531
1710626,1862571,1632661
1710491,1862151,1632559
1710368,1861737,1633581
1710561,1861601,1634170
1710151,1861290,1635222
1710700,1860921,1635722
1710527,1860105,1637005
1710732,1859836,1637123
1710300,1858940,1638197
1710410,1858532,1638443
1710550,1858252,1638871
1710701,1858121,1639504
1710240,1857874,1639412
1710240,1858128,1639427
1710300,1857807,1639813
1710270,1858159,1639913
1710544,1858302,1639552
1710309,1858985,1639148
1710268,1860386,1638765
1710189,1863526,1640171
1710445,1864641,1639257
1710423,1865027,1640304
1710712,1865393,1640413
1710443,1865159,1640397
1710515,1864773,1639891
1709994,1864576,1640802
1710399,1864376,1641099
1710376,1864274,1639881
1710707,1864151,1639621
1710616,1864137,1639799
1710797,1864058,1639494
1710468,1863897,1639847
1710705,1863929,1640858
1710426,1864033,1640274
1710401,1864058,1640757
1710401,1863873,1640105
1710064,1863767,1640233
1710208,1863311,1640361
1709991,1863500,1639915
1710367,1862963,1641214
1710328,1861816,1640736
1710116,1860147,1640481
1710060,1859773,1640717
1710281,1859154,1640719
1709940,1858830,1641386
1709886,1858339,1641315
1710137,1857654,1641263
1710116,1857349,1641084
1709964,1857511,1641412
1710298,1857227,1641381
1710426,1856869,1641656
1710641,1856766,1640748
1710522,1856879,1640757
1710373,1856968,1641593
1710257,1857082,1641638
1710562,1857688,1641641
1710412,1858416,1642102
1710375,1859707,1642202
1710375,1860860,1642935
1710654,1861505,1642218
1711104,1862082,1642787
1711120,1862329,1642311
1711289,1862446,1641958
1710985,1862687,1640577
1711421,1864212,1640812
1711239,1865040,1641655
1711210,1865727,1642433
1711250,1865581,1642794
1711270,1865027,1642688
1710795,1864462,1641556
1710875,1864186,1642522
1710790,1864578,1643295
1711263,1865011,1643190
1711117,1865290,1642746
1710978,1865516,1642808
1710761,1865517,1642482
1710666,1865682,1642716
1710779,1866076,1641915
1710807,1866186,1642088
1710424,1866385,1641632
1710424,1866094,1641653
1710369,1866400,1642129
1710395,1866900,1641905
1710322,1867402,1642884
1710468,1867744,1642570
1710435,1867613,1643276
1710418,1867709,1643048
1710469,1868594,1643748
1710502,1868510,1645159
1710513,1868860,1645946
1710522,1869432,1646974
1710506,1869289,1647781
1710418,1869122,1648800
1710525,1869131,1651122
1710533,1868953,1652890
1710801,1868917,1654011
1710750,1868618,1654215
1711098,1868454,1654988
1710771,1868130,1655324
1710508,1868146,1655718
1710420,1868245,1655307
1710443,1867948,1654846
1710443,1867956,1654953
1710114,1867755,1655116
1710129,1866706,1655814
1710129,1867029,1656046
1709943,1866894,1656338
1709757,1866552,1655555
1709784,1866266,1655610
1709621,1865154,1655789
1709453,1864550,1656205
1709690,1864359,1655974
1709538,1864209,1656420
1709337,1863815,1655220
1709358,1862971,1654966
1709496,1862792,1655054
1709601,1862196,1655598
1709837,1861802,1655246
1709799,1861565,1654178
1709731,1861761,1654253
1709550,1861817,1654326
1709757,1861926,1654609
1709732,1862249,1655167
1709784,1862468,1655680
1709575,1862173,1657274
1709575,1861519,1657944
1709443,1861025,1659464
1709421,1861350,1660738
1709464,1861540,1660682
1709690,1862005,1661921
1709569,1861700,1661500
1709379,1861886,1661180
1709454,1861784,1661909
1709538,1861419,1662229
1709646,1860990,1662967
1709491,1860267,1662817
1709474,1859311,1662539
1709198,1859032,1663399
1709021,1858872,1662818
1708996,1858961,1662941
1709258,1858957,1662046
1709019,1858562,1662503
1709025,1858433,1661643
1708871,1857829,1661771
1708723,1857896,1662269
1708626,1857814,1662373
1708389,1858229,1663438
1707987,1858349,1662969
1707987,1858396,1662491
1708044,1858159,1662019
1708076,1858177,1662791
1707914,1858038,1662904
1707666,1857557,1663794
1707791,1857099,1664301
1707712,1856812,1664750
1707744,1857009,1664472
1707459,1857172,1665462
1707563,1857553,1664998
1707496,1857352,1665417
1707526,1856926,1664568
1707339,1856909,1663588
1707320,1857150,1663292
1707549,1857683,1663476
1707781,1858618,1662224
1707813,1859054,1661627
1707989,1858700,1661993
1707660,1858298,1662158
1707740,1858145,1661250
1707812,1857957,1660546
1707282,1858011,1659706
1707003,1857806,1659809
1707003,1857936,1660207
1707131,1858131,1660038
1707085,1858816,1659523
1707229,1859184,1658955
1707246,1858432,1659106
1707007,1857933,1658841
1707117,1857921,1659538
1707145,1858392,1659242
1706944,1857905,1659004
1707028,1858255,1659220
1706985,1857892,1658565
1706600,1857256,1657638
1706366,1856522,1657333
1706604,1856380,1658238
1706865,1855932,1657282
1707142,1855574,1656549
1706866,1854963,1656083
1706801,1854136,1655645
1706503,1853159,1655596
1706877,1852943,1655987
1706332,1852971,1654838
1706456,1852682,1655279
1706456,1852058,1654302
1706142,1851991,1654180
1706291,1852009,1654424
1706224,1852323,1653569
1706476,1852533,1653400
1706302,1852673,1653323
1706421,1853577,1652930
1706288,1854654,1652235
1706541,1854859,1651640
1706689,1854068,1652898
1706559,1853497,1652276
1706551,1852659,1652214
1706524,1851875,1651918
1706279,1851950,1651455
1706744,1851724,1651506
1706727,1851563,1652552
1706871,1850909,1651155
1706596,1850570,1651072
1706517,1850199,1650860
1706554,1850026,1651431
1706411,1850468,1650251
1706175,1851096,1650065
1706023,1851258,1649991
1706023,1851132,1649990
1705764,1851317,1649981
1705764,1851716,1649893
1705746,1852442,1649763
1705655,1852452,1650150
1705472,1852510,1650605
1705506,1853125,1650252
1705229,1853357,1651065
1705470,1853108,1650490
1705219,1852568,1651294
1705440,1852205,1651672
1705106,1851602,1651656
1705063,1851870,1652033
1705219,1852033,1652350
1705425,1852382,1652170
1705259,1852158,1651330
1705510,1852060,1650765
1705708,1851552,1650870
1705319,1851371,1650536
1705326,1851073,1649611
1705362,1851645,1648438
1704982,1851608,1648652
1704982,1851761,1647784
1705027,1851266,1647532
1705083,1851049,1648076
1705365,1851409,1648034
1705226,1851581,1647669
1705572,1851528,1647141
1705167,1852680,1646420
1705287,1853232,1645751
1705301,1854142,1645162
1705411,1854923,1644678
1705281,1855070,1645005
1705315,1855094,1644777
1705100,1855240,1644746
1705214,1855057,1644368
1705226,1854889,1645252
1705769,1855053,1645190
1705724,1854921,1644929
1705767,1854769,1644930
1705530,1854996,1644899
1705808,1854856,1645985
1705713,1854852,1645383
1705185,1854823,1645823
1704896,1854460,1645309
1704896,1854465,1645052
1705129,1853809,1646193
1705083,1853383,1646677
1705150,1853098,1646875
1705312,1852533,1646850
1705177,1852158,1646676
1705399,1851559,1646781
1705496,1851442,1645973
1705517,1851446,1646041
1705805,1851434,1646447
1705902,1851452,1646627
1705778,1851780,1645492
1705813,1852212,1645908
1706304,1852261,1644833
1706487,1851958,1645046
1706859,1851530,1645326
1707138,1851427,1645090
1707706,1851622,1645139
1707786,1851963,1645824
1707818,1852056,1646275
1707952,1853090,1646226
1708030,1853401,1645070
1708030,1853407,1644618
1708015,1853599,1645720
1708191,1853897,1645616
1708326,1854233,1645821
1708642,1853676,1645674
1708562,1852964,1645551
1708412,1852388,1645409
1708566,1852195,1645398
1708726,1851625,1645704
1708627,1851388,1645271
1708547,1851048,1644906
1708646,1850240,1646046
1708525,1849910,1645957
1708471,1849462,1645938
1708560,1848723,1646525
1708609,1848212,1647355
1708840,1847803,1648007
1708795,1847045,1647769
1708549,1846842,1647563
1708632,1846595,1648139
1708661,1846211,1648629
1708389,1845863,1649289
1708389,1844782,1649423
1708157,1843674,1649329
1707993,1842289,1650307
1708281,1841120,1651246
1708151,1839800,1651832
1708287,1838330,1652124
1708045,1837443,1652429
1707959,1837410,1651746
1708241,1836920,1651678
1708347,1836158,1652066
1708187,1836371,1651453
1708509,1836301,1651541
1708172,1836346,1651527
1708270,1836755,1650784
1708483,1837748,1649820
1708919,1838917,1650226
1709175,1839923,1651215
1709484,1841011,1651082
1709981,1841982,1650265
1710094,1842620,1650759
1710434,1842164,1650300
1710720,1842576,1651873
1710632,1842739,1652642
1710632,1842534,1652032
1710585,1842059,1652824
1710687,1841914,1651830
1710839,1842090,1651266
1710970,1841904,1651174
1710964,1841404,1651252
1710567,1840494,1651499
1710543,1840845,1651246
1710634,1840668,1650957
1710628,1840487,1650399
1710575,1839749,1650728
1710575,1838532,1651537
1710625,1837857,1651030
1710823,1837277,1651504
1711279,1836180,1651173
1711829,1835089,1650705
1712032,1833651,1651027
1712173,1832698,1651804
1712249,1832505,1650657
1712640,1832656,1651062
1712639,1833277,1651764
1712805,1833542,1651072
1712676,1833183,1650896
1712676,1833096,1650780
1713396,1833324,1650459
1713632,1834097,1650657
1714172,1834262,1651001
1714591,1833873,1651053
1714609,1833427,1651088
1715826,1832717,1651895
1715886,1832763,1651733
1716162,1832795,1652105
1716370,1832855,1651377
1716513,1832198,1651521
1716394,1831536,1652453
1716719,1831810,1651486
1716742,1831742,1651692
1717311,1832191,1652002
1717390,1831940,1652088
1717430,1831181,1651880
1717223,1830057,1651318
1717612,1829305,1650528
1717724,1828861,1651195
1717985,1829074,1650963
1717945,1828856,1651295
1717945,1828452,1651057
1718347,1828362,1651470
1718578,1828287,1651013
1718798,1827965,1650785
1718864,1827803,1651327
1719026,1827855,1651513
1718695,1828646,1651602
1719039,1828086,1650368
1718760,1827834,1650788
1718642,1827278,1650760
1718351,1826006,1651213
1718077,1824333,1651627
1717633,1823463,1651114
1717733,1823252,1651025
1717669,1822624,1651370
1717719,1822585,1652074
1717350,1822159,1651844
1717577,1821268,1651961
1717560,1820231,1652381
1717883,1819344,1652052
1717695,1818492,1652135
1717883,1817525,1652343
1717883,1816467,1653446
1717896,1815464,1653288
1718275,1814594,1653678
1718407,1814728,1654246
1718651,1814252,1654810
1718649,1813434,1655651
1718846,1812023,1656612
1718698,1812181,1656928
1718601,1812056,1656761
1718480,1812286,1657488
1718717,1812484,1656881
1718539,1811913,1657713
1718627,1811970,1658187
1718596,1812409,1658936
1718895,1812742,1658987
1719138,1813385,1659186
1719003,1813861,1659985
1718665,1814176,1660842
1718856,1814591,1660529
1718618,1815097,1661791
1718511,1815245,1661580
1718014,1815498,1661310
1717634,1815847,1661578
1717634,1815947,1661410
1717665,1816334,1661912
1717686,1816189,1661046
1717243,1815865,1661271
1717216,1815690,1661113
1717070,1815971,1660580
1717198,1817361,1660750
1716956,1817789,1661201
1716892,1817527,1661087
1716722,1817272,1660960
1716742,1816153,1661872
1716397,1815305,1661948
1716331,1814757,1661840
1716270,1814633,1662046
1716702,1814874,1661711
1716519,1815468,1661764
1716612,1815593,1662287
1716596,1815675,1663167
1716769,1815737,1661753
1716766,1815455,1662036
1716770,1815507,1661766
1716618,1814989,1662286
1716618,1814315,1661992
1716723,1813784,1662222
1716807,1814529,1661831
1717132,1815222,1662119
1717073,1814658,1662516
1717384,1814244,1662679
1717096,1813815,1662083
1717324,1814027,1661498
1717109,1813717,1661358
1717299,1813993,1661788
1716958,1813760,1661551
1716940,1813628,1661536
1716680,1813671,1661549
1717004,1813596,1661913
1717048,1813642,1662581
1717395,1813489,1662653
1717320,1813190,1663690
1717548,1813014,1664154
1717341,1813022,1663072
1717142,1812989,1663815
1717348,1813106,1663952
1716726,1812614,1664032
1716726,1812295,1664225
1716618,1812115,1663354
1716646,1811649,1663754
1716595,1811715,1664678
1716443,1811322,1664147
1715901,1811199,1665056
1715813,1811338,1665457
1715211,1811039,1665322
1715213,1810815,1666023
1715175,1810680,1666446
1715009,1810900,1666300
1714823,1811007,1666712
1714827,1811147,1666375
1714835,1811557,1666267
1714759,1811660,1666192
1715046,1811282,1666280
1715100,1810795,1666094
1714708,1810130,1665819
1714740,1809817,1665991
1714571,1810169,1665733
1714640,1810127,1665504
1714357,1809655,1665831
1714150,1809002,1665555
1714150,1808359,1665411
1713915,1807921,1665030
1714079,1807518,1665021
1713874,1806954,1665216
1713870,1806237,1665726
1713680,1805678,1665841
1713252,1805248,1666010
1712886,1804868,1666222
1712790,1804675,1666676
1712800,1804978,1666661
1712642,1805050,1667219
1712144,1804976,1668344
1711689,1805156,1668568
1711694,1805284,1669085
1712029,1804909,1669347
1711604,1803918,1669106
1711297,1802921,1669629
1711237,1801770,1669743
1711119,1800998,1669876
1710540,1800848,1669420
1710420,1800923,1671071
1710215,1800832,1671029
1710215,1800759,1671581
1709944,1800520,1672472
1709739,1800218,1672472
1709709,1800262,1671693
1709604,1800117,1672186
1709510,1799559,1672315
1709376,1799516,1672696
1709331,1799669,1672303
1709502,1799552,1671717
1709393,1798696,1672736
1709299,1797845,1672282
1709392,1796860,1672352
1709141,1796715,1672647
1709375,1797154,1672847
1709560,1797545,1672300
1709622,1797457,1672118
1709229,1796965,1671614
1709272,1796608,1671377
1709106,1796818,1672136
1709131,1796808,1672138
1709113,1796660,1671299
1709013,1796613,1671094
1708600,1796162,1671338
1708600,1795897,1671501
1708770,1795574,1671037
1708708,1795674,1670993
1708740,1795517,1669989
1708553,1795086,1670344
1708656,1795357,1671047
1708811,1797133,1671199
1708637,1798127,1671094
1708381,1798006,1671222
1708290,1797797,1670669
1708392,1797117,1670376
1708118,1796947,1671423
1707659,1796961,1671271
1707785,1796762,1671839
1707858,1797053,1671147
1707836,1797246,1671298
1707417,1797222,1670585
1707458,1797308,1672009
1707091,1797632,1672498
1707549,1797451,1672518
1707073,1798127,1671108
1707098,1797880,1672126
1707098,1797781,1672108
1707079,1797653,1673270
1707110,1797330,1673559
1707119,1797299,1672984
1707178,1797255,1673300
1707221,1796956,1673598
1707143,1797593,1674276
1707181,1798514,1674095
1707007,1798025,1673962
1707287,1797740,1674015
1706933,1797353,1673308
1706838,1796372,1672642
1706587,1795716,1672956
1706724,1795035,1672855
1706807,1794465,1673483
1707268,1793942,1674300
1706906,1793208,1675096
1706726,1792852,1674561
1706473,1792518,1675803
1706447,1792860,1675411
1706311,1793020,1675965
1706109,1793344,1675830
1706109,1793345,1676428
1705667,1792908,1676294
1705743,1792335,1677677
1705742,1792092,1678024
1705540,1791319,1677898
1705263,1790352,1678304
1704965,1790154,1678427
1704838,1789930,1678889
1704900,1789566,1679625
1704638,1789578,1678726
1704475,1789279,1679920
1704300,1788835,1679167
1704077,1788274,1678273
1703956,1788125,1678593
1703888,1787806,1679320
1703846,1787831,1679854
1703806,1787525,1679556
1703437,1787363,1680002
1703629,1786930,1680141
1703475,1786834,1680884
1703519,1786823,1680076
1703121,1786865,1680178
1702930,1786296,1679272
1702930,1786053,1680297
1702867,1785741,1680405
1702872,1785191,1681329
1702845,1785167,1681916
1702887,1784917,1682249
1702675,1784965,1681938
1702219,1786117,1682421
1702462,1786297,1682678
1702425,1786253,1683082
1702366,1786189,1683441
1702443,1786122,1684350
1701980,1785513,1683666
1701864,1785739,1684061
1701916,1785892,1684499
1702316,1785857,1684938
1702194,1785868,1684216
1702246,1786156,1684159
1702070,1786092,1683291
1702014,1785458,1684670
1701806,1785324,1684692
1701797,1785887,1683801
1701487,1786097,1683371
1701487,1786045,1684005
1701294,1786448,1682823
1701002,1786139,1683083
1700703,1785980,1682954
1700774,1786146,1682499
1700882,1786500,1681666
1700382,1786918,1682608
1700229,1786992,1682597
1699942,1786516,1682149
1699996,1786198,1682050
1699806,1786014,1682542
1699804,1785564,1682049
1699444,1785129,1682231
1699602,1785047,1681709
1699100,1784888,1683236
1699731,1784802,1683171
1699542,1784205,1683827
1699566,1783875,1684489
1699336,1783512,1685148
1699457,1783239,1685643
1699481,1783127,1686013
1699272,1783221,1686289
1698912,1783717,1686607
1698912,1783821,1686715
1699117,1783797,1686941
1698957,1783764,1686227
1699085,1784196,1686374
1699072,1784216,1685954
1699163,1784573,1685918
1699127,1787075,1685943
1699329,1788638,1685889
1699266,1789686,1685920
1699462,1790957,1685778
1699352,1792159,1684770
1699320,1793036,1683804
1699086,1792888,1683901
1699169,1792484,1683973
1699255,1792387,1683479
1699503,1792080,1683464
1699091,1791879,1682177
1699379,1791916,1681783
1698905,1791984,1682317
1699255,1792023,1682023
1699038,1792488,1682230
1698740,1792472,1680715
1698387,1792291,1681251
1698387,1792051,1681802
1698849,1791889,1681874
1698885,1791792,1680700
1699172,1790799,1681092
1699082,1789738,1681206
1698846,1789895,1680891
1698995,1789733,1682536
1699223,1789589,1682204
1699336,1789069,1682500
1699520,1789034,1681780
1699395,1788515,1681812
1699449,1788545,1683013
1699511,1788398,1682334
1699760,1787378,1682983
1699761,1786948,1683046
1700042,1786199,1682661
1699960,1785427,1682448
1700114,1785534,1682356
1699892,1785758,1683173
1700252,1786182,1683097
1700019,1786303,1683053
1699891,1786014,1681611
1699891,1786355,1681475
1699961,1786137,1680806
1700142,1786111,1680080
1700019,1785802,1680249
1700155,1785548,1680202
1699976,1785501,1679606
1700411,1785348,1678917
1700234,1785577,1678562
1700496,1785598,1678453
1700570,1785471,1677982
1700891,1784765,1678097
1700754,1784554,1677850
1701178,1784746,1677452
1701145,1785063,1677909
1701525,1785200,1678853
1701328,1785116,1678193
1701294,1784901,1678110
1701108,1784535,1677647
1701151,1784609,1678925
1700987,1784726,1678560
1700866,1785577,1679202
1700427,1785616,1679253
1700241,1786211,1679302
1700241,1786593,1678834
1700394,1786352,1678541
1700503,1786241,1679023
1700343,1785938,1679606
1700172,1785924,1679422
1700238,1786554,1680378
1700570,1787434,1683027
1700673,1787676,1683974
1701095,1788351,1686713
1701253,1788625,1686710
1701612,1788220,1687315
1701696,1788320,1686998
1702229,1788312,1687812
1702537,1787873,1687974
1702801,1788038,1688781
1702714,1788554,1688345
1703058,1788977,1688450
1703006,1789749,1689105
1702926,1790190,1688840
1702823,1791334,1688300
1702570,1791277,1687721
1702570,1791399,1687130
1702599,1792181,1686732
1702883,1792428,1685852
1703013,1793066,1684419
1703142,1793607,1683710
1703208,1793629,1681918
1703517,1794911,1681022
1703657,1795275,1679911
1703341,1795019,1680071
1703624,1794876,1679574
1703847,1795153,1678797
1703890,1794654,1677923
1703505,1794627,1678436
1703663,1794875,1678713
1703844,1795181,1679075
1703911,1795172,1680061
1703777,1794862,1679812
1703952,1794567,1679313
1703677,1794280,1679596
1703566,1793910,1679340
1703628,1793684,1679713
1703457,1793652,1678512
1702769,1793207,1678980
1702769,1793106,1678225
1702764,1793128,1678191
1702726,1792769,1678003
1702889,1792475,1676788
1702716,1791582,1676523
1702545,1790993,1676948
1702331,1790312,1676855
1702273,1790146,1676528
1702195,1789925,1677562
1702279,1789400,1677238
1702231,1788518,1677302
1701946,1788035,1676104
1701667,1787753,1676097
1701798,1787598,1675367
1701939,1787820,1675817
1702090,1788141,1675405
1701878,1788137,1674389
1701972,1787816,1674043
1701564,1787888,1675089
1701659,1788075,1674627
1701278,1787804,1673663
1700885,1787425,1673564
1700885,1787032,1673077
1700860,1786788,1672705
1700935,1786290,1672708
1700638,1786088,1672119
1700639,1786326,1672280
1700578,1785860,1672621
1700576,1785084,1672848
1700409,1785052,1672037
1700153,1784218,1672517
1700113,1783549,1671997
1700018,1782871,1671862
1699410,1781724,1671530
1699323,1781083,1671866
1699265,1780409,1671952
1699337,1780476,1671707
1699169,1780215,1671380
1698989,1779543,1671210
1698905,1779058,1671237
1698669,1778947,1671556
1698535,1778951,1671562
1698359,1779027,1671607
1697763,1778581,1670236
1697667,1778229,1670846
1697667,1777644,1671455
1697484,1776535,1671476
1697565,1776338,1671145
1697424,1776234,1669952
1697248,1775429,1670305
1697026,1775586,1669909
1697169,1775082,1670187
1697063,1774524,1669852
1697075,1774043,1669746
1696829,1773231,1669713
1696824,1772565,1669931
1696614,1771494,1669571
1696676,1770749,1669560
1696395,1770525,1669958
1696837,1770356,1669597
1696588,1769379,1669757
1696528,1769186,1668466
1696073,1768557,1668956
1696161,1768384,1668508
1696085,1768371,1668809
1695978,1768869,1668292
1695486,1768736,1667430
1695486,1768415,1667698
1695591,1768299,1668462
1695075,1768935,1667768
1695229,1769297,1667923
1694977,1769117,1666393
1695102,1769079,1666400
1694486,1769646,1666155
1694313,1770029,1666845
1694073,1769623,1666445
1694206,1769800,1666294
1693900,1768962,1666362
1693691,1768120,1667052
1693171,1767734,1665909
1693090,1767663,1666307
1693054,1767101,1666807
1693174,1767475,1667276
1692357,1767719,1667028
1692028,1767454,1667604
1691682,1766759,1667640
1691839,1766522,1667659
1691305,1765466,1668019
1691198,1765317,1667759
1691198,1764537,1667021
1690651,1764112,1667162
1690751,1763731,1667225
1690537,1764110,1667254
1690196,1763916,1667299
1690347,1763541,1667876
1690302,1762706,1668230
1690074,1762579,1668296
1690060,1762187,1668288
1689694,1761734,1667679
1689804,1761022,1667224
1689772,1759592,1667489
1689685,1759063,1667060
1689388,1758830,1667221
1689898,1758815,1668322
1690052,1758916,1667731
1690332,1759382,1668494
1689876,1759105,1667963
1689789,1759247,1667275
1689864,1759519,1667205
1689969,1759353,1668329
1689527,1759550,1667467
1689262,1759469,1667811
1688994,1758772,1667871
1688994,1758631,1667818
1689181,1757688,1668161
1688885,1757386,1667467
1689069,1756921,1668176
1689118,1756768,1667201
1688834,1756851,1667530
1688325,1755657,1666645
1688337,1755689,1667085
1688241,1755477,1666888
1688124,1754978,1667949
1687858,1754831,1667206
1687793,1754850,1667189
1687933,1754204,1668022
1688475,1753822,1667959
1689032,1752506,1668975
1689693,1751332,1668292
1690405,1749833,1668358
1690666,1749197,1668487
1690608,1748600,1668866
1691618,1748002,1669254
1691656,1747123,1668551
1691656,1746253,1668611
1692062,1745796,1668594
1692221,1745727,1668211
1692856,1746039,1669123
1692632,1746173,1669255
1692676,1746111,1668223
1692507,1745459,1668503
1692385,1745189,1668150
1692174,1744901,1667985
1692347,1745247,1668534
1691989,1746293,1668323
1691734,1746304,1667639
1691381,1746699,1667110
1691314,1747196,1666668
1691048,1746938,1666934
1691081,1746909,1666485
1691054,1747159,1666362
1690573,1747712,1666415
1690056,1748155,1666265
1689833,1748608,1666802
1689855,1748034,1666285
1689280,1747347,1667038
1688984,1746787,1666824
1688984,1746207,1666904
1688757,1745563,1666645
1688482,1745660,1667188
1688600,1745479,1666822
1688382,1744773,1666253
1688377,1743808,1667183
1688031,1742962,1666640
1688091,1742172,1668001
1687969,1741939,1667610
1687995,1742251,1668773
1687707,1741651,1668283
1687579,1740734,1668878
1687476,1740024,1668157
1687736,1739379,1669040
1687723,1739030,1669553
1688211,1739058,1670109
1688101,1738498,1670698
1687953,1738040,1671329
1688023,1737402,1671785
1688320,1737119,1671679
1688324,1736589,1671908
1688070,1736599,1672621
1687987,1736834,1672109
1687987,1737150,1673291
1688071,1736977,1673582
1687984,1736775,1673364
1688144,1736230,1674191
1687881,1735668,1673905
1687784,1735303,1673527
1687647,1735942,1673717
1687587,1735974,1674445
1687580,1735578,1674985
1687614,1735164,1675132
1687580,1734232,1674313
1687453,1733419,1674959
1687454,1733261,1674796
1687507,1733388,1675037
1687625,1733662,1675240
1687677,1733892,1676619
1687741,1733853,1675914
1687391,1733476,1676228
1686985,1733433,1675780
1686805,1733562,1675947
1686669,1734428,1676096
1686183,1735224,1676486
1685864,1735907,1675051
1685864,1736593,1675631
1685711,1736872,1675274
1685850,1737710,1676028
1685805,1737808,1676608
1685380,1737586,1677210
1685370,1737851,1677603
1685553,1738062,1677489
1685283,1737900,1677756
1685343,1737716,1677227
1685169,1737023,1677604
1685067,1736325,1676635
1684852,1735713,1677405
1684732,1735381,1676616
1684670,1735163,1677458
1684885,1735068,1677431
1684597,1734556,1677207
1684619,1734561,1676681
1684323,1734181,1676527
1684361,1734053,1676625
1684162,1733294,1677416
1684071,1733026,1677586
1683608,1732481,1677399
1683506,1731968,1677144
1683506,1732111,1677446
1683457,1731869,1677627
1683592,1732061,1677593
1683362,1731993,1678321
1683292,1732440,1677610
1682909,1734375,1677546
1682748,1735496,1677565
1682428,1736111,1677597
1682471,1736497,1676617
1682129,1736346,1677043
1681917,1736616,1677682
1681512,1737058,1676719
1681461,1737760,1676649
1681196,1737965,1677494
1681673,1738135,1677395
1681039,1737230,1678132
1680817,1736265,1678774
1680655,1735261,1678096
1681075,1734921,1677726
1680162,1734718,1679348
1680156,1735146,1679245
1680156,1735386,1677616
1679729,1735791,1678408
1679991,1735722,1678179
1679221,1735293,1677212
1679177,1734332,1677364
1679136,1733606,1677057
1678644,1732853,1677944
1678466,1732814,1676670
1678447,1732243,1677629
1678196,1731622,1677756
1678136,1730451,1677666
1677913,1729118,1678223
1677853,1728863,1678494
1677716,1728947,1678124
1677766,1729235,1677998
1677757,1729239,1678447
1677874,1729231,1678064
1677493,1728876,1677941
1677625,1729137,1677698
1677446,1729386,1677965
1677494,1729620,1678405
1677332,1729881,1678265
1677332,1730655,1677965
1677112,1731220,1677121
1677343,1732395,1678222
1677659,1733859,1678409
1677483,1735201,1678201
1677412,1736054,1678342
1677082,1736197,1677974
1677030,1736348,1678651
1676709,1735662,1678535
1676734,1734851,1679564
1676404,1733640,1679627
1676504,1732414,1679782
1676064,1731580,1679778
1676035,1731465,1680297
1675803,1731244,1679871
1675882,1731435,1680880
1675833,1730991,1680417
1675889,1730502,1681492
1675599,1730214,1681008
1675302,1730021,1681301
1674984,1729306,1681384
1675028,1728739,1681084
1674377,1727086,1682044
1674033,1724965,1681999
1674033,1722672,1681437
1673879,1720732,1681719
1673784,1718054,1682074
1673503,1716202,1682572
1673366,1715285,1681595
1671931,1713265,1681176
1671972,1712524,1680500
1671591,1711225,1680616
1671464,1710678,1680910
1670828,1709391,1681527
1670506,1708037,1681513
1670254,1707302,1681343
1670251,1707000,1681317
1669880,1706649,1681176
1669880,1706638,1681771
1669708,1706058,1682619
1669542,1705196,1681819
1669192,1704001,1681774
1668590,1703361,1682769
1668527,1702913,1683404
1667794,1702757,1684127
1667160,1702552,1684020
1667160,1702338,1685290
1667005,1701901,1685504
1666592,1701783,1685509
1666612,1700784,1686071
1666222,1700075,1685514
1666187,1700013,1685521
1665355,1699794,1685490
1664917,1699955,1685253
1664649,1699153,1685467
1664442,1698661,1685112
1663937,1697554,1685521
1663878,1696641,1685277
1663405,1696346,1685136
1663197,1695701,1685891
1662964,1694867,1686232
1663168,1694507,1687646
1662533,1693443,1688011
1662529,1692320,1687966
1662035,1691644,1687768
1661921,1690928,1688614
1661518,1690447,1688528
1661015,1689847,1689413
1661015,1689184,1688451
1660953,1689128,1688165
1660945,1688838,1688568
1660764,1688489,1688158
1660641,1687286,1689247
1660102,1686240,1688190
1659592,1684377,1688508
1659185,1683548,1687847
1659232,1682870,1689188
1658940,1682724,1688514
1658644,1682415,1688362
1658554,1682331,1689165
1658337,1682561,1689399
1658152,1683059,1688166
1657963,1683405,1688833
1658113,1683261,1687930
1657989,1683289,1688064
1657743,1683370,1687816
1658073,1683920,1687810
1657787,1684858,1688190
1657677,1685247,1687896
1657561,1685085,1687559
1657561,1684388,1688278
1657435,1683943,1687046
1657389,1683502,1688120
1657407,1683901,1687291
1657441,1684005,1687705
1657328,1684045,1687845
1656719,1684744,1687869
1656514,1685067,1687108
1656217,1684304,1686977
1656310,1683579,1687922
1656189,1682894,1687820
1656202,1681999,1688715
1655903,1681075,1689034
1655921,1680983,1689904
1655763,1680849,1690061
1656132,1680858,1691885
1656055,1680567,1690893
1655868,1679771,1692047
1655491,1679188,1691192
1655319,1678319,1691110
1655023,1677246,1691306
1654774,1676877,1691360
1654653,1676096,1690746
1654653,1675334,1690441
1654486,1674997,1689573
1654556,1674326,1690128
1654455,1674363,1690188
1654365,1674060,1689313
1654250,1673946,1688729
1654195,1674257,1689099
1654105,1674006,1689317
1653981,1673781,1689446
1654068,1673657,1689349
1653702,1672536,1689057
1653667,1671465,1689912
1653462,1670855,1689098
1653495,1670412,1689077
1653358,1669923,1690123
1653305,1670096,1690514
1653241,1670105,1690846
1652924,1669863,1690561
1652566,1669973,1690683
1652581,1670186,1690439
1652443,1670393,1690379
1652158,1670508,1690758
1652158,1670345,1691394
1651859,1669635,1691574
1652093,1669210,1691396
1652023,1668707,1691318
1651602,1667996,1690404
1651443,1667238,1690254
1651414,1666550,1690980
1651198,1667461,1690044
1650963,1667986,1689721
1651063,1668270,1689560
1650861,1667997,1690064
1650648,1666995,1690127
1650477,1665453,1690537
1650409,1665055,1690588
1650233,1664395,1690760
1650628,1663852,1690443
1650587,1663406,1689798
1650534,1663169,1691358
1650314,1663116,1690361
1650317,1663245,1690564
1650222,1663142,1690205
1650060,1663522,1690266
1649613,1663602,1690513
1649613,1664044,1689178
1649667,1664539,1689384
1649554,1665036,1689051
1649716,1665489,1689010
1649669,1665770,1690429
1649491,1665962,1689365
1649276,1667041,1689183
1649624,1668434,1688642
1649480,1668870,1689162
1649614,1669288,1689088
1649367,1669686,1688936
1649586,1669884,1689848
1649382,1670323,1688944
1649634,1670934,1688821
1649608,1671224,1688895
1650192,1671486,1688570
1649881,1671365,1689407
1649931,1671355,1688843
1649868,1671403,1688643
1649987,1671842,1688327
1649563,1672159,1688290
1649750,1672538,1688400
1649750,1672071,1688399
1649368,1672057,1687977
1649370,1671708,1687709
1649215,1671462,1687839
1649005,1670726,1687587
1648882,1670133,1688071
1649061,1669659,1688110
1648676,1669455,1687909
1648499,1669831,1687533
1648441,1669549,1687432
1648519,1668505,1688336
1648259,1667229,1688428
1648040,1666474,1688574
1647602,1666062,1688416
1648030,1665457,1688535
1647905,1665016,1688465
1648165,1664663,1688855
1647851,1664680,1688791
1648091,1664050,1688587
1647794,1662744,1689033
1647969,1661642,1688454
1647700,1661612,1689551
1647416,1661577,1689566
1647416,1661325,1688528
1647014,1661143,1688761
1647174,1661051,1689106
1646846,1661327,1689217
1646919,1661295,1689137
1646669,1661567,1690578
1646523,1662268,1691993
1646198,1663716,1692271
1646279,1664474,1693273
1646218,1664978,1692910
1645882,1664712,1693652
1645810,1664047,1693389
1645622,1663741,1693930
1645450,1663766,1693983
1645759,1663975,1693987
1645792,1664260,1694419
1645946,1664499,1694433
1645567,1664175,1694157
1645458,1663908,1694154
1645402,1663570,1693199
1645627,1663235,1694105
1644844,1662511,1693371
1644844,1661909,1693289
1644813,1661624,1693318
1644701,1661488,1693455
1644847,1661765,1693292
1644833,1662389,1693575
1644844,1662728,1694141
1644596,1662657,1694011
1644899,1662441,1694020
1644662,1662161,1694655
1644682,1662274,1694859
1644719,1662737,1695826
1644901,1662836,1695633
1644388,1662917,1695731
1644647,1663795,1697079
1644255,1664200,1696912
1644671,1664530,1698109
1644753,1664284,1698443
1644549,1664337,1699415
1644559,1664298,1698844
1644561,1664859,1699090
1644421,1665194,1698937
1644447,1665402,1698868
1644118,1664567,1698225
1644118,1663880,1699195
1644135,1663099,1698872
1643897,1662793,1699207
1643977,1662781,1698077
1643739,1662439,1698967
1643612,1662964,1698890
1643508,1663837,1698846
1643395,1664341,1699174
1643323,1664416,1698867
1643402,1664808,1699822
1643345,1664133,1700150
1643162,1663357,1699980
1642942,1662752,1698981
1643100,1662194,1699877
1642943,1661329,1700248
1643231,1660954,1700956
1642689,1660478,1701183
1642919,1660016,1701426
1642783,1659406,1700940
1642720,1658612,1701495
1642369,1658119,1702366
1642317,1657894,1703083
1642317,1657076,1702264
1641922,1656474,1703487
1641747,1655838,1703820
1641831,1655441,1704431
1641903,1655031,1703803
1641784,1654148,1704569
1641248,1653756,1704633
1641251,1653241,1703724
1641266,1653509,1704185
1641219,1653343,1703969
1641102,1653856,1704139
1640943,1653803,1703688
1640773,1653506,1704496
1640522,1653478,1703797
1640689,1653670,1703814
1640931,1654059,1702781
1640894,1654309,1703014
1640948,1654593,1702862
1641061,1655222,1703199
1640394,1656225,1702817
1640734,1657064,1702672
1640464,1657986,1702677
1640133,1657869,1702242
1640133,1657578,1701652
1640144,1657588,1701916
1640309,1657292,1702245
1640199,1657306,1702247
1640164,1656942,1701430
1639977,1656847,1700280
1640034,1655831,1700765
1639636,1655370,1700344
1639815,1654863,1700759
1639463,1654414,1700473
1639581,1653916,1700648
1639328,1653277,1700125
1639176,1652982,1699968
1639259,1652351,1699794
1639261,1651808,1700330
1639333,1651766,1700244
1639313,1650824,1700438
1638923,1650428,1700599
1639108,1650850,1700438
1638906,1650702,1699870
1638820,1651083,1700963
1638478,1651071,1700963
1638478,1650733,1699982
1638582,1650385,1699804
1638392,1649833,1700013
1638559,1649897,1700236
1638250,1649452,1699479
1638454,1649051,1699054
1637951,1648259,1699324
1638066,1647401,1699515
1638110,1646789,1699860
1637910,1646377,1699379
1637783,1646091,1700088
1637404,1645587,1700353
1637354,1645777,1701387
1637351,1645726,1700460
1637457,1646158,1701065
1637469,1646392,1701174
1637250,1646907,1701148
1637316,1646886,1700829
1637345,1647065,1699787
1637048,1647069,1700896
1636976,1647556,1700442
1636432,1647832,1700907
1636432,1647804,1700133
1636211,1647730,1700119
1636311,1647118,1699647
1636116,1646690,1699019
1636251,1645675,1699660
1636156,1644685,1698661
1635690,1644051,1698030
1635327,1643949,1698576
1635610,1643947,1697979
1635773,1644129,1697529
1635552,1643801,1697483
1635321,1643621,1697549
1635199,1643395,1697932
1635168,1643638,1697636
1635391,1644211,1696940
1635519,1644694,1698325
1635403,1645402,1697622
1635317,1645836,1698365
1635251,1645931,1697599
1635293,1646007,1697452
1634909,1646559,1697434
1634747,1646709,1697836
1634747,1646628,1697141
1634752,1646975,1696863
1634892,1646650,1697972
1634861,1646597,1697409
1634751,1646523,1697797
1634896,1647011,1697312
1634637,1648440,1697021
1634769,1649534,1697287
1634781,1649616,1696190
1634710,1649650,1697377
1634706,1649094,1696835
1634570,1648635,1697060
1634433,1648691,1697557
1634696,1648879,1697704
1634713,1648788,1697501
1634840,1648464,1697784
1634891,1647537,1698487
1634809,1646817,1698014
1634551,1646259,1698668
1634218,1646136,1698013
1634342,1646022,1697883
1633911,1645738,1698871
1633911,1644996,1699397
1633806,1644281,1698600
1633965,1643264,1698490
1633704,1642845,1699198
1633634,1642821,1699258
1633847,1643010,1699501
1633619,1643698,1699370
1633363,1643662,1700965
1633436,1643657,1701304
1633740,1643378,1701279
1633629,1643534,1701841
1633571,1643910,1701414
1633140,1644152,1701732
1633301,1644359,1700975
1633143,1644402,1700610
1633521,1644925,1701465
1633484,1645425,1701784
1633504,1645786,1701486
1633155,1646201,1701914
1633625,1646617,1701118
1633514,1646409,1701301
1633234,1646499,1702332
1632794,1646567,1702403
1632794,1646945,1702626
1633009,1646840,1701839
1632975,1646947,1702784
1633146,1646745,1703157
1633063,1646337,1702912
1633101,1645871,1702820
1632542,1644185,1703447
1632590,1643687,1703368
1632572,1643422,1703176
1632663,1643768,1702860
1632371,1643555,1702277
1632265,1643521,1702052
1632009,1643798,1701715
1632222,1643679,1701239
1632290,1643329,1700499
1632471,1643098,1701192
1632439,1642545,1700665
1632280,1641763,1700814
1631851,1641787,1700670
1631779,1641908,1700522
1631404,1642334,1700443
1631176,1642415,1700343
1630689,1642369,1699706
1630689,1642746,1699200
1630838,1642581,1699086
1630749,1643008,1699221
1630878,1643487,1699044
1630680,1643343,1699337
1630669,1643279,1697900
1630422,1642331,1698542
1630571,1642146,1697881
1630414,1641996,1698435
1630341,1641892,1698577
1630151,1641208,1698035
1630179,1640579,1698209
1630063,1640385,1698642
1630210,1640303,1697872
1630195,1640506,1697733
1630325,1640641,1697978
1630211,1640709,1698122
1630278,1641286,1698588
1630141,1641785,1697732
1630111,1641949,1697648
1629746,1641924,1697460
1629659,1642055,1697995
1629659,1642513,1698552
1629500,1643127,1697815
1629553,1643357,1698233
1629514,1643746,1698646
1629638,1643497,1698558
1629607,1643701,1698362
1629725,1644368,1699092
1629390,1644724,1698210
1629765,1644888,1699010
1629777,1645040,1698915
1629740,1645205,1699278
1629664,1644727,1698871
1629758,1644690,1699256
1629480,1644333,1698870
1629651,1644307,1700607
1629615,1644435,1700133
1629987,1644415,1701658
1629923,1644007,1701523
1629752,1643668,1701381
1629547,1643499,1700320
1629623,1643965,1701736
1629145,1643814,1702028
1629145,1643832,1702912
1629083,1643676,1702065
1629116,1643231,1703402
1629363,1642761,1703666
1629192,1642590,1703113
1629232,1642015,1704597
1628967,1642100,1703212
1628801,1642119,1704102
1628593,1642273,1702962
1628711,1642835,1703695
1628588,1642791,1704121
1628731,1643360,1704155
1628419,1643114,1704904
1628537,1643129,1704715
1628218,1642318,1704669
1628396,1641764,1704811
1628488,1641543,1704887
1628736,1641618,1704697
1628554,1641724,1704649
1628255,1642355,1705417
1628292,1642702,1706100
1628608,1642882,1706279
1628477,1642720,1706041
1628477,1642291,1705657
1628343,1642085,1705735
1628137,1642022,1706572
1628221,1641907,1706327
1627966,1641575,1705823
1628093,1641216,1705757
1627926,1641561,1704958
1627796,1641682,1706118
1627786,1641995,1705176
1627861,1642767,1706161
1627414,1642841,1706301
1627440,1642165,1706575
1627144,1641295,1706113
1627293,1640840,1705898
1627207,1640023,1706962
1627667,1640110,1706358
1627314,1640118,1706367
1627569,1640521,1706949
1627367,1639967,1708015
1627461,1639446,1708114
1627125,1638810,1707036
1626908,1638518,1707837
1626908,1638241,1707881
1626558,1638490,1707705
1626514,1638953,1707337
1626574,1639007,1707436
1626510,1637985,1707627
1626344,1637183,1708150
1626355,1636664,1708049
1626324,1637783,1708196
1626356,1638535,1707798
1626217,1638944,1708615
1626090,1639326,1708507
1626334,1639335,1707832
1626204,1639926,1708319
1626019,1641081,1708561
1626395,1641738,1707725
1626733,1642817,1709123
1626850,1643761,1709158
1626720,1644031,1710029
1626772,1644202,1710373
1626395,1644511,1710744
1626730,1644754,1711232
1626627,1645283,1711580
1626392,1645623,1711970
1626392,1645884,1711289
1626504,1646194,1711551
1626769,1646391,1711978
1626709,1646910,1712931
1626701,1647403,1711836
1626868,1647548,1711596
1626963,1648273,1711796
1626930,1648384,1710700
1627102,1648444,1709652
1627048,1648374,1709304
1626878,1647606,1709292
1626766,1646709,1708829
1626705,1645806,1710198
1626803,1644510,1709857
1626799,1643421,1709601
1626857,1642586,1709994
1626790,1642212,1709298
1626750,1642066,1709862
1626288,1642269,1710448
1626483,1642584,1710538
1626535,1643130,1711357
1625934,1643187,1712582
1625894,1643093,1712426
1625894,1642746,1713561
1626170,1642740,1713272
1626203,1642233,1714513
1626028,1641873,1714536
1625996,1641688,1714433
1625956,1641089,1714641
1625845,1640138,1714466
1625709,1640465,1714508
1625647,1641009,1713653
1625604,1640858,1714044
1625559,1640683,1712802
1625517,1640308,1712594
1625496,1640443,1711984
1625384,1640636,1711679
1625644,1641013,1711675
1625702,1641297,1711579
1625805,1641101,1711604
1625759,1640832,1710411
1625480,1641081,1709999
1625580,1641017,1709546
1625177,1641084,1711202
1624916,1641030,1710568
1624916,1641262,1710186
1624828,1640790,1710161
1624988,1640611,1709548
1624851,1639831,1710069
1624857,1638808,1709504
1624586,1638276,1708565
1624418,1639051,1708823
1624251,1639643,1708796
1624229,1639836,1708919
1624208,1639588,1708322
1624341,1638926,1708068
1624079,1637558,1707504
1623880,1636557,1707552
1623714,1635787,1707627
1623885,1635329,1707245
1623707,1635248,1707114
1623667,1635265,1707099
1623520,1634741,1707677
1623458,1634445,1707259
1623380,1634362,1706905
1623133,1634429,1706622
1622847,1634067,1707315
1622847,1634191,1707327
1622924,1633980,1706036
1622852,1633853,1706668
1622875,1633798,1705920
1622841,1633857,1704971
1622859,1632941,1704752
1622574,1632574,1704573
1622446,1632708,1704674
1622199,1633109,1704979
1622326,1634124,1704248
1622320,1634547,1703808
1622256,1635083,1703737
1622120,1635671,1704148
1622319,1636175,1704366
1622434,1635753,1703598
1622900,1635038,1703662
1622823,1634220,1704351
1622834,1633878,1704057
1622505,1633600,1704305
1622763,1633548,1703311
1622597,1633265,1702584
1622530,1633510,1702658
1622050,1633404,1702883
1622050,1633023,1702979
1622167,1632370,1701912
1621942,1632252,1702099
1622045,1632238,1702357
1622031,1632167,1702954
1622178,1631592,1701959
1621694,1630794,1702114
1621854,1630500,1701494
1621674,1629873,1701935
1621712,1629747,1701319
1621398,1629144,1700636
1621445,1628342,1700359
1621121,1627765,1700056
1621211,1627796,1699781
1621131,1628379,1699359
1621576,1629595,1699351
1621318,1629759,1699258
1621353,1630410,1699247
1621270,1630589,1698528
1621216,1630445,1699153
1620945,1630176,1698470
1621184,1630253,1699217
1620636,1630511,1698341
1620636,1630567,1698300
1621015,1630279,1698308
1620749,1630733,1698532
1620981,1631064,1698120
1620774,1631210,1696828
1620939,1631513,1697979
1620907,1631317,1696738
1620874,1631438,1697473
1620858,1630913,1696545
1620972,1630999,1696636
1620765,1630611,1696299
1620961,1629969,1696226
1620512,1630106,1695537
1620620,1630700,1695629
1620620,1630920,1695587
1620918,1631442,1695340
1620911,1630365,1696228
1620700,1628875,1695984
1620283,1627856,1695356
1620110,1626994,1695839
1619985,1625697,1696380
1619582,1624883,1696425
1619112,1624162,1694929
1619112,1624016,1695396
1619274,1622936,1695340
1619075,1622673,1696208
1619020,1622202,1694971
1618879,1621406,1694712
1618807,1620521,1695324
1618516,1620255,1694501
1618461,1620321,1694524
1618256,1620036,1694214
1618175,1620227,1694240
1618069,1619703,1694235
1617726,1619595,1694474
1617548,1619360,1694262
1617978,1619688,1694750
1617857,1619730,1694948
1617991,1619573,1694990
1617690,1619014,1694562
1617651,1618808,1694355
1617530,1619301,1694379
1617614,1619517,1693796
1617442,1620604,1694812
1617291,1621537,1695095
1617291,1622107,1694192
1617483,1622593,1693902
1617262,1622127,1694773
1617093,1621645,1694580
1617283,1620683,1695172
1617166,1620167,1694831
1616991,1620889,1695957
1616784,1621773,1695654
1616987,1621870,1695119
1616783,1622021,1694874
1616840,1622300,1695656
1616699,1622167,1695492
1616652,1622647,1695456
1616613,1623287,1694838
1616735,1623235,1694479
1616816,1623546,1694575
1616941,1624117,1695191
1616999,1623769,1694722
1616931,1623542,1694039
1616888,1623733,1693911
1616887,1624399,1694316
1616773,1625060,1694613
1616625,1626052,1694825
1616625,1626977,1694205
1616660,1627782,1694948
1617097,1628588,1695069
1616962,1628935,1695057
1616942,1628756,1694464
1617032,1629105,1694832
1617202,1630188,1694326
1617043,1630667,1694717
1617519,1630682,1695035
1617118,1630142,1694881
1616685,1629373,1694937
1616990,1628683,1694753
1617044,1628562,1694785
1617094,1628542,1694724
1617462,1629300,1694650
1617807,1629955,1694904
1617586,1629789,1694146
1617592,1628841,1694779
1617313,1627775,1695536
1617290,1626727,1696292
1616995,1626330,1696055
1616794,1626218,1696072
1616794,1626235,1695839
1616776,1626725,1696312
1616362,1627098,1696365
1616584,1627760,1696800
1616608,1627924,1697191
1616635,1627442,1697097
1616639,1627449,1697049
1616216,1627236,1698435
1616338,1627140,1697689
1616469,1627179,1697550
1616101,1627281,1697779
1616392,1626869,1698164
1616180,1626501,1697500
1616069,1626858,1698160
1616261,1627350,1697904
1616767,1628447,1699041
1616853,1628729,1698310
1616652,1629028,1698352
1616550,1628817,1698000
1616600,1628828,1699100
1616528,1628873,1698803
1616283,1628796,1698883
1616189,1628229,1698835
1616189,1627258,1698351
1616217,1626394,1698731
1616223,1626151,1698348
1615947,1625450,1697660
1615929,1624594,1698155
1615834,1623687,1697808
1615534,1622882,1698015
1615469,1622892,1697972
1615472,1622632,1697752
1615257,1622174,1697511
1615274,1621758,1697798
1614979,1621074,1697718
1614890,1621026,1697846
1614999,1620829,1697883
1615062,1620931,1698889
1615126,1620553,1698863
1614969,1619817,1698610
1614879,1619141,1698999
1614779,1618960,1699278
1614706,1618764,1698930
1614828,1618793,1699377
1614412,1618692,1698265
1614150,1618868,1699074
1614150,1619120,1698706
1614452,1620022,1698291
1614306,1620484,1699119
1614208,1620257,1699734
1614349,1619499,1699325
1614163,1619472,1699385
1614218,1619217,1699583
1613981,1619000,1700815
1614054,1619236,1700383
1614128,1619408,1700657
1613877,1619518,1700435
1613824,1619328,1699881
1614052,1619559,1699964
1613980,1619688,1699797
1614294,1620221,1699702
1614361,1620512,1698973
1614368,1620894,1698962
1614107,1620770,1699263
1614191,1620694,1699395
1614393,1620933,1697858
1613971,1620875,1697230
1613488,1620363,1696944
1613488,1619972,1696248
1613835,1619943,1696721
1613850,1619888,1695756
1613802,1620167,1695903
1613825,1619551,1694725
1613886,1619614,1694506
1613834,1621344,1695033
1613924,1622533,1694347
1613735,1622895,1693826
1614036,1622816,1693718
1613909,1622320,1693512
1613869,1621700,1694275
1613578,1621663,1693567
1613867,1621784,1694047
1613867,1621462,1694400
1614389,1621532,1694418
1614068,1621172,1693788
1614174,1620577,1693970
1613906,1620355,1694125
1614014,1620798,1693798
1614173,1621856,1693193
1613856,1622610,1693816
1613856,1622988,1693475
1613739,1623513,1694190
1613989,1622794,1694702
1613849,1622784,1694332
1614142,1622415,1694294
1614019,1622313,1693512
1614615,1623773,1693859
1614740,1624697,1693944
1614821,1624990,1695489
1614714,1625561,1695290
1614959,1626147,1695872
1614986,1626507,1694750
1614912,1626540,1695466
1614989,1627133,1694975
1615068,1627409,1694874
1615576,1627421,1693659
1615733,1626910,1694331
1615391,1626065,1694165
1615451,1625469,1694162
1615031,1625039,1694094
1615343,1624989,1694431
1615123,1625948,1693801
1615048,1626250,1693344
1615048,1626524,1693081
1614932,1626538,1693267
1615275,1626556,1693408
1615154,1626598,1691991
1615397,1626145,1693109
1615438,1625943,1692025
1615353,1626235,1692797
1615577,1625921,1692287
1615590,1625703,1692825
1615492,1625622,1692703
1615436,1625189,1693116
1615307,1624640,1692097
1615330,1624717,1693275
1615282,1624759,1692251
1615572,1624850,1691859
1615480,1624842,1691585
1615900,1624887,1691959
1615882,1625076,1691403
1615986,1625691,1691938
1615707,1626227,1691821
1616053,1627655,1691985
1615722,1628145,1690600
1615722,1628423,1690871
1615751,1628305,1691135
1615585,1628543,1691499
1616010,1629011,1691696
1615853,1630162,1692075
1616169,1630429,1692659
1615951,1631457,1690982
1616549,1632476,1690981
1616211,1632183,1690748
1616365,1631872,1690732
1616208,1630812,1691088
1616188,1629537,1690230
1615795,1627860,1690463
1616132,1626739,1691053
1615950,1625356,1690364
1616054,1624760,1690101
1615983,1624486,1689777
1615995,1624163,1690080
1615781,1623595,1690308
1615985,1623187,1690167
1615658,1622750,1690007
1615338,1622462,1689509
1614938,1621800,1689818
1614938,1621010,1689700
1615054,1620208,1689540
1614693,1619516,1690087
1614859,1619150,1689782
1614559,1618486,1689708
1614274,1618072,1689833
1614170,1617602,1690114
1613875,1616709,1690379
1613700,1615567,1690640
1613802,1614671,1690702
1613518,1614157,1690639
1613416,1612804,1690850
1613089,1613323,1690897
1613343,1613479,1691024
1613434,1613298,1691257
1613413,1612997,1690888
1613221,1612372,1691088
1613513,1612137,1691414
1613445,1611463,1691995
1613543,1611805,1691022
1613285,1611873,1690513
1613109,1611991,1690750
1613109,1611630,1691642
1612932,1611129,1691579
1612759,1610518,1690940
1612802,1610106,1690642
1613068,1609623,1691079
1613022,1608737,1691452
1612742,1607841,1690883
1612281,1607600,1691665
1612506,1607577,1691410
1612465,1607501,1690130
1612314,1607558,1688962
1612230,1607226,1688663
1612072,1606895,1688890
1611860,1606615,1689142
1612024,1606336,1689525
1612421,1605910,1689217
1612427,1605596,1688500
1612429,1605649,1689759
1612498,1606074,1689712
1612196,1606519,1690084
1612122,1606605,1688976
1611904,1606265,1688892
1611809,1606031,1689636
1611809,1605534,1689501
1611627,1604822,1690027
1611749,1604847,1689818
1611807,1604512,1689652
1611752,1604209,1689416
1611579,1603824,1689423
1611585,1603865,1689941
1611582,1603713,1689632
1611721,1603984,1689260
1611710,1604213,1689844
1611879,1604356,1688941
1611610,1604291,1689065
1611755,1604410,1689132
1611809,1604587,1690525
1611896,1604913,1689202
1612386,1605606,1689236
1612283,1606015,1689037
1612440,1606047,1688956
1612489,1606005,1689458
1612261,1605773,1688143
1612378,1605940,1688718
1611977,1605711,1688339
1611977,1605294,1689071
1611813,1604520,1690164
1611779,1604291,1689219
1612121,1604195,1689482
1611902,1603693,1689421
1611894,1603009,1689495
1611940,1602801,1689579
1612055,1602487,1688775
1612071,1602022,1689358
1612197,1601471,1690096
1612032,1601186,1690422
1612016,1600075,1690120
1612090,1599534,1690566
1611815,1599399,1691208
1612040,1599410,1691752
1612339,1599531,1692374
1612381,1599135,1692214
1612177,1598480,1692897
1612160,1598062,1693001
1611975,1598040,1692792
1611695,1597411,1691837
1611472,1597289,1692885
1611262,1596836,1693358
1611262,1596387,1693239
1611364,1595925,1694428
1611430,1595872,1694200
1611132,1595983,1694059
1610992,1595673,1693799
1610865,1596081,1694984
1611045,1596481,1695873
1610899,1596795,1694865
1611216,1596454,1694587
1611000,1595720,1694872
1610991,1594624,1694444
1610802,1593724,1695750
1610931,1593873,1696080
1610781,1593788,1697124
1611279,1594070,1697447
1611407,1593968,1697153
1611519,1594245,1697524
1611726,1594079,1698892
1611688,1595245,1698669
1611557,1595363,1698139
1611636,1595826,1698357
1611361,1595616,1697869
1611361,1595177,1699326
1611442,1595034,1698409
1611202,1595587,1698920
1611338,1596350,1698804
1611176,1596310,1699367
1611264,1595858,1699648
1610664,1595205,1699146
1610653,1595460,1699013
1610414,1595471,1699841
1610561,1595869,1699790
1610454,1596435,1699569
1610567,1597018,1699113
1610258,1596646,1699434
1610462,1596833,1700169
1610192,1596791,1700156
1610711,1596713,1700220
1610643,1595573,1700065
1610621,1594477,1699639
1610328,1593182,1699478
1611188,1592167,1700251
1611967,1591449,1698541
1613217,1590919,1698415
1613217,1590266,1699119
1613895,1589789,1699401
1614999,1589072,1698909
1615233,1589306,1697950
1615838,1589470,1698943
1615509,1589340,1697593
1615453,1589883,1698112
1613922,1591442,1696889
1613860,1591509,1697885
1613372,1591800,1697417
1613321,1592621,1697186
1613206,1592888,1696782
1612916,1593131,1697552
1612607,1593577,1697244
1613130,1593865,1697417
1613286,1593088,1696946
1614005,1593113,1696579
1613808,1592535,1696510
1613952,1592447,1696174
1613576,1593162,1696319
1613709,1593718,1696462
1613427,1594414,1695825
1613367,1595352,1696257
1613367,1595215,1697428
1613246,1594558,1698318
1613525,1594134,1699178
1613312,1593661,1698574
1613245,1592526,1699378
1613298,1591697,1699632
1613024,1591048,1699864
1612997,1591307,1699345
1613133,1591369,1700033
1613236,1591059,1698960
1613295,1590569,1699572
1613039,1589127,1700162
1613091,1588730,1699862
1613012,1587881,1699815
1613122,1587499,1700612
1612945,1586891,1699545
1613082,1586465,1699575
1612795,1586581,1699955
1612362,1587031,1700964
1612100,1586968,1700529
1612381,1587300,1701090
1611848,1586866,1700010
1611605,1586439,1699896
1611605,1585850,1699739
1611481,1585841,1699902
1611749,1586004,1699272
1611653,1586089,1698892
1611794,1585758,1699290
1611534,1586140,1699034
1612114,1586523,1698907
1612243,1586506,1699250
1612568,1586576,1700122
1612740,1586498,1699261
1612940,1585730,1699240
1612905,1584566,1699528
1613218,1583494,1700143
1613299,1582940,1699794
1613694,1582370,1700604
1613560,1582105,1699877
1613614,1581991,1700211
1613089,1582387,1700367
1612829,1582578,1700693
1612323,1582431,1701068
1612030,1582371,1700607
1611421,1582080,1701160
1611421,1581904,1701530
1611595,1581349,1701871
1611427,1581296,1701799
1611243,1580722,1702198
1611021,1580708,1702377
1611065,1580548,1702412
1610767,1581032,1703103
1610636,1581046,1702761
1610380,1581672,1703031
1610435,1582103,1703736
1610398,1582112,1703355
1610434,1582163,1703272
1610224,1582258,1703602
1610260,1582401,1703693
1610354,1582331,1704471
1610797,1582712,1703736
1610589,1582719,1704261
1610858,1582386,1703213
1610668,1582248,1704822
1610729,1582049,1704869
1610364,1581766,1704649
1610467,1581618,1704717
1610467,1581196,1703722
1610513,1580590,1703886
1610650,1579666,1702716
1610629,1578780,1703051
1610828,1577879,1703051
1610540,1577159,1701918
1610662,1576948,1702156
1610689,1577313,1702264
1610667,1577433,1702236
1610783,1578458,1702685
1610586,1578579,1702458
1610307,1578259,1702276
1610193,1578071,1703108
1610071,1578530,1702953
1610560,1578914,1703736
1610500,1578909,1704875
1610673,1579192,1704360
1610592,1579312,1705053
1610491,1579566,1705762
1610205,1579748,1707028
1610128,1580212,1707874
1609795,1580416,1707349
1609795,1580316,1708743
1609896,1580474,1709731
1609874,1580640,1708980
1609838,1581291,1710183
1609735,1581444,1710080
1609745,1581178,1711035
1609296,1582321,1710452
1609166,1582143,1710673
1609192,1581450,1711017
1609212,1580831,1710833
1609016,1580691,1708950
1609302,1580625,1709210
1608886,1580277,1709399
1608696,1579927,1709521
1608764,1579126,1709384
1609147,1578261,1709190
1609240,1577411,1708696
1609260,1576939,1707769
1608908,1576392,1707600
1609016,1576007,1707417
1609037,1575828,1707506
1608774,1575901,1705725
1608774,1575684,1704934
1608575,1575757,1705067
1608595,1575795,1705418
1608738,1576822,1704028
1608864,1577483,1704026
1608678,1577657,1704138
1608772,1577257,1703451
1608273,1577184,1703697
1608424,1576658,1704203
1608230,1576714,1704119
1608346,1577086,1703802
1608290,1577567,1703439
1608218,1578046,1703233
1608189,1578182,1703608
1608107,1578329,1703440
1608306,1578733,1704898
1608230,1578415,1705082
1608403,1578691,1705916
1608286,1578590,1706101
1608144,1578504,1707390
1608108,1577995,1708022
1607776,1578062,1707774
1607322,1578149,1707084
1607322,1578139,1707728
1607200,1577131,1706538
1607179,1577296,1706217
1607369,1577049,1706305
1607056,1576638,1706660
1607038,1576078,1706049
1606453,1575743,1705581
1606762,1575659,1705542
1606677,1575162,1706057
1606673,1574823,1705584
1606485,1573788,1705513
1606333,1572947,1705959
1605947,1572627,1705576
1606257,1571375,1706850
1606328,1571107,1707896
1606403,1570936,1707746
1606084,1570386,1707259
1606022,1570006,1708043
1606035,1569961,1708141
1605958,1569777,1708492
1606008,1570218,1707036
1605760,1569866,1707212
1605760,1569052,1706979
1605589,1568841,1706525
1605726,1568715,1706798
1605519,1568774,1705334
1605583,1569457,1705309
1605703,1568737,1704854
1605643,1567383,1704397
1605382,1566736,1703980
1605393,1565430,1703451
1605359,1564351,1703495
1605247,1563002,1702759
1604818,1562252,1702180
1604659,1561938,1702977
1604491,1561747,1701584
1604754,1561620,1702060
1604496,1561709,1701288
1604509,1561587,1700861
1604354,1561872,1700666
1604468,1561777,1701099
1604202,1561235,1700190
1604424,1560947,1700179
1604043,1560852,1700099
1603559,1560503,1699488
1603559,1560411,1699046
1603579,1559728,1699531
1603664,1559305,1698326
1603564,1559123,1698017
1603472,1558870,1698084
1603274,1559098,1697455
1603153,1559058,1698115
1602981,1559786,1697392
1603091,1559892,1697637
1603074,1559951,1696910
1603362,1559464,1696849
1602979,1559022,1695987
1603026,1558820,1696887
1603069,1559029,1696482
1603604,1558952,1697536
1603382,1558705,1695998
1603376,1558339,1695170
1603181,1557844,1695280
1603490,1557485,1695979
1603467,1557167,1695783
1603669,1557081,1694702
1603260,1556755,1694674
1603260,1556086,1694139
1603278,1556171,1693707
1603039,1556215,1693206
1603150,1556529,1693198
1603123,1556913,1693153
1603348,1556488,1692992
1603258,1556869,1693499
1603063,1557288,1692654
1603283,1557011,1692229
1603500,1557142,1692617
1603238,1557004,1693099
1603546,1556833,1693519
1603277,1556813,1694043
1603618,1557352,1695348
1603855,1557897,1695455
1603855,1558211,1695367
1603717,1558516,1693962
1603630,1558501,1693814
1603811,1558927,1694208
1603924,1559466,1695067
1603922,1560014,1693051
1603814,1560651,1692485
1603462,1560456,1692251
1603462,1560049,1691969
1603702,1560059,1692504
1603799,1560140,1692378
1604012,1560564,1692651
1604042,1560814,1692238
1604151,1561155,1692469
1604462,1562892,1692082
1604696,1563696,1692333
1604691,1564191,1691720
1604769,1564850,1691474
1604686,1564850,1690825
1604612,1564488,1691447
1604376,1564199,1691463
1604730,1563945,1691752
1604834,1564175,1690579
1605086,1563774,1690144
1604912,1563376,1690001
1605211,1563373,1690849
1605020,1563141,1691565
1605085,1563245,1691704
1605263,1563528,1691274
1604977,1563618,1690789
1604977,1563397,1691249
1604681,1563503,1691312
1604784,1563399,1691645
1604662,1564134,1691789
1604801,1563663,1691124
1604826,1563133,1690385
1604609,1562612,1691307
1604316,1562362,1691548
1604619,1562386,1692482
1604553,1562337,1692726
1604616,1562667,1692143
1604332,1562168,1692177
1604169,1561685,1693302
1603985,1561246,1694011
1604189,1561141,1693882
1604463,1560855,1693838
1604426,1560555,1694912
1604118,1560015,1695307
1604258,1559400,1695900
1604020,1559328,1696406
1604384,1558998,1696568
1604178,1559378,1695902
1604065,1559355,1697077
1604065,1559287,1698231
1604147,1559691,1697354
1604305,1559849,1697817
1604262,1559790,1697493
1604444,1559517,1698182
1604141,1559311,1698467
1603581,1559448,1698833
1603426,1559843,1699278
1603237,1560361,1699565
1603215,1561453,1699279
1603144,1561377,1698163
1602700,1560843,1698152
1602715,1560764,1698585
1602629,1560504,1699565
1602686,1560402,1700253
1602718,1559945,1700616
1602674,1560019,1699775
1602554,1559007,1700109
1602694,1558644,1699936
1602522,1558130,1700415
1602604,1558063,1700149
1602242,1558171,1700800
1602347,1557783,1700807
1602347,1557476,1701210
1602400,1556963,1700795
1602504,1556725,1700851
1602449,1556242,1700109
1602409,1555822,1701251
1602251,1555573,1701922
1602022,1554807,1701669
1601981,1554824,1702248
1602071,1554886,1702271
1601886,1555208,1701871
1602091,1554767,1702079
1602076,1554284,1702366
1601906,1554103,1702289
1601887,1554038,1701925
1602149,1553705,1701610
1602395,1553721,1701859
1602142,1554248,1702583
1602205,1554857,1701907
1601978,1555089,1701405
1601932,1555539,1701030
1601679,1555967,1701338
1601247,1556119,1702252
1601247,1556523,1702164
1601406,1557157,1702314
1601395,1557742,1703108
1601475,1558131,1703271
1601435,1558156,1703407
1601462,1557707,1703541
1601069,1558018,1704257
1601059,1557789,1704520
1600724,1557647,1705364
1600765,1557612,1706149
1600813,1557270,1706861
1600697,1556492,1706924
1600564,1555835,1707117
1600634,1555571,1708350
1600308,1554619,1708062
1600596,1554149,1708007
1600681,1553333,1708591
1600380,1552655,1708793
1600296,1552296,1709075
1600398,1552519,1708373
1600197,1552172,1708751
1599912,1552115,1709432
1599594,1551960,1708401
1599594,1551572,1709931
1599659,1551149,1709026
1599578,1550942,1709156
1599776,1550492,1709643
1599696,1549761,1709611
1599605,1549234,1709660
1599482,1549036,1709826
1599591,1548306,1710246
1599426,1547336,1710602
1599352,1546952,1710654
1599313,1547232,1710590
1599100,1547023,1711383
1599117,1547013,1712134
1599116,1547433,1712419
1599281,1548007,1712139
1599577,1548647,1712873
1599530,1549245,1713583
1599550,1549850,1713135
1599553,1550916,1713166
1599640,1552080,1712999
1599843,1553907,1712995
1599876,1555496,1712880
1599667,1556624,1713656
1599667,1557974,1713505
1599950,1558729,1713533
1600044,1559621,1713725
1599962,1559519,1714030
1599979,1559355,1715306
1599703,1559354,1714190
1599934,1560219,1713561
1599829,1560719,1713473
1599771,1560929,1713469
1599666,1560807,1712217
1599779,1560165,1713903
1599541,1559449,1713736
1599559,1558911,1712534
1599622,1558136,1712191
1599963,1557491,1712494
1599626,1556516,1712838
1599617,1555395,1713271
1599776,1554570,1713149
1599536,1554662,1712546
1599447,1554214,1712549
1599239,1554141,1713049
1598895,1553735,1711780
1598895,1553722,1712009
1598990,1553491,1711563
1599062,1553684,1710840
1599102,1553702,1710796
1598910,1553596,1710939
1599129,1553442,1711078
1598707,1552359,1710375
1598766,1551737,1710441
1598598,1550769,1710011
1598655,1550450,1710422
1598486,1549660,1709629
1598476,1549555,1710833
1598132,1549770,1710176
1598469,1549692,1709988
1598281,1549409,1709864
1598626,1549221,1709505
1598236,1548462,1709112
1598426,1547898,1708270
1598033,1547702,1706902
1598217,1547946,1707057
1598182,1548052,1706542
1597939,1548153,1706250
1597939,1547780,1705497
1597892,1547390,1705469
1597920,1547283,1705671
1597757,1547354,1705271
1597812,1547101,1705050
1597753,1546923,1705403
1597687,1547423,1705503
1597541,1547493,1705485
1597626,1546787,1706762
1597435,1546573,1705755
1597615,1546195,1706621
1597462,1545795,1706290
1597287,1545268,1706677
1597312,1545367,1706705
1597641,1545364,1706153
1597835,1545476,1706296
1598038,1545914,1706070
1597933,1546377,1707484
1597990,1546857,1706774
1597810,1547504,1706386
1598284,1548092,1705733
1597965,1548674,1706229
1597758,1548417,1705419
1597758,1548735,1705092
1597577,1549439,1704968
1597949,1549719,1705348
1598020,1549553,1705969
1598094,1549455,1705796
1597889,1549511,1705113
1598166,1549616,1705466
1597990,1550206,1705084
1598380,1550501,1705113
1598141,1550767,1704805
1598209,1550641,1704165
1597909,1550402,1704495
1598019,1550729,1704961
1597830,1550483,1703526
1598185,1549891,1704114
1597928,1548868,1704380
1597725,1548265,1704785
1597618,1547254,1704503
1597405,1547255,1703266
1596970,1546656,1703221
1597143,1546414,1703627
1596820,1546426,1703548
1596820,1546051,1703759
1596862,1545259,1703842
1596732,1544869,1704370
1596904,1544435,1704041
1596443,1543790,1704431
1596518,1542678,1703880
1596020,1541346,1703298
1596004,1540734,1703136
1595996,1539875,1702573
1595742,1539774,1702211
1595878,1539387,1701487
1595700,1538544,1701496
1595429,1538188,1701418
1595642,1538257,1700467
1595315,1537738,1700199
1595831,1537942,1700309
1595627,1537418,1700907
1595526,1536503,1699938
1595357,1536140,1700083
1595455,1535932,1699570
1595314,1535704,1699224
1595224,1536003,1699331
1594988,1536083,1698419
1594988,1535851,1697716
1595027,1535588,1697642
1595139,1535721,1698675
1595143,1535051,1699149
1595082,1534165,1698527
1594873,1533841,1699729
1594813,1533341,1699105
1594850,1533462,1698576
1594656,1533141,1698634
1594731,1533063,1698564
1594672,1532578,1698985
1594729,1532425,1698039
1594471,1532095,1696891
1594715,1532351,1696458
1595029,1532305,1695952
1595046,1531856,1694822
1594776,1531330,1694878
1594811,1531117,1693859
1594593,1530810,1693420
1594912,1530993,1692913
1594582,1531019,1693244
1594536,1531165,1691562
1594536,1530874,1691798
1594489,1530787,1692062
1594797,1530860,1690817
1594465,1530262,1691621
1594486,1530075,1690652
1594434,1529841,1691204
1594240,1529663,1690949
1593813,1529419,1691441
1594175,1529690,1690810
1594036,1529485,1690996
1594191,1529311,1690723
1593850,1529065,1690605
1593916,1529121,1690338
1593783,1529046,1690731
1593953,1528834,1690212
1593860,1528981,1690521
1593935,1528627,1690931
1594113,1528343,1690433
1593935,1528224,1689946
1593825,1528044,1689413
1593816,1528583,1689173
1593313,1528469,1689458
1593313,1528635,1690845
1593407,1528376,1690845
1593227,1528148,1690844
1593348,1527869,1691229
1593321,1527217,1691487
1593062,1526416,1691701
1592998,1525826,1692840
1593112,1526230,1694106
1592865,1526264,1693413
1593043,1526124,1693865
1592902,1525679,1694676
1592923,1524898,1695181
1592783,1524409,1695179
1592829,1524594,1695295
1592707,1524274,1694129
1593209,1524222,1695101
1592953,1524174,1695335
1592982,1524149,1694767
1593068,1524064,1694188
1593113,1524302,1694107
1592801,1524543,1693655
1592714,1524716,1692639
1592624,1524692,1692025
1592624,1524697,1691708
1592628,1524622,1691386
1592661,1524767,1691792
1592796,1524309,1691180
1592619,1524292,1690643
1592500,1524142,1691261
1592277,1524308,1690964
1592182,1523653,1690579
1592147,1522941,1690610
1592263,1522893,1690703
1592273,1522475,1690625
1592243,1522179,1690180
1592113,1521605,1689660
1592032,1521565,1689546
1592208,1521063,1689762
1592249,1520893,1690133
1592109,1520573,1690351
1591783,1520231,1689478
1591768,1519995,1689052
1591929,1519850,1688688
1591722,1520007,1688616
1591635,1520144,1688630
1591635,1519954,1688544
1591346,1519730,1688444
1591322,1519618,1688436
1591154,1519793,1688495
1591304,1519831,1688314
1591203,1519512,1688427
1590941,1519521,1687577
1590655,1519819,1688076
1590609,1519876,1686989
1590901,1519389,1686588
1590619,1519040,1686978
1590526,1518226,1687158
1590210,1517630,1686267
1590443,1517343,1686212
1590193,1516956,1686421
1590426,1516564,1686700
1590175,1516407,1685894
1590040,1515997,1685438
1590082,1515862,1684848
1589940,1515267,1685100
1589697,1514843,1684858
1589872,1514772,1684287
1589145,1514556,1684679
1589145,1513725,1684297
1589225,1513088,1684273
1589050,1511790,1683547
1588871,1511206,1684040
1588801,1510330,1683912
1588710,1509428,1683900
1588116,1508121,1683973
1588252,1507336,1684034
1588240,1506019,1683336
1588384,1505345,1683685
1588271,1505019,1684047
1588295,1504157,1684401
1588295,1503874,1684856
1588501,1503490,1685169
1588642,1503230,1685012
1589034,1503364,1685718
1588823,1502933,1685715
1588784,1502792,1685935
1588537,1502797,1685775
1588629,1502209,1686496
1588708,1502068,1686528
1588390,1502048,1685718
1587885,1501854,1686078
1587885,1502107,1686499
1587957,1501938,1686480
1588013,1501960,1687301
1588034,1501732,1687017
1587846,1501050,1687475
1587852,1501030,1687625
1587927,1500489,1687951
1587720,1500155,1688422
1587631,1500242,1687991
1587717,1500165,1689132
1587605,1499974,1687662
1587683,1499324,1687738
1587419,1498847,1687459
1587545,1498098,1687482
1587820,1497724,1687065
1588045,1497304,1687041
1587591,1496821,1686629
1587706,1496293,1686299
1587382,1495761,1686438
1587567,1495833,1687885
1587248,1495918,1687278
1587050,1496335,1687399
1587050,1495905,1687880
1586889,1495959,1688383
1587128,1495367,1689001
1587030,1495275,1688372
1587099,1494676,1688456
1586839,1494501,1687760
1586855,1493746,1687762
1586565,1493345,1686816
1586446,1493247,1687345
1586476,1492988,1687715
1586583,1492893,1688104
1586402,1492360,1686827
1586233,1492112,1685644
1586320,1492194,1684668
1586456,1491977,1684318
1586095,1491979,1684802
1586607,1492173,1684580
1586379,1491935,1683466
1586536,1491796,1684149
1586399,1491751,1682949
1586627,1491747,1682069
1586159,1491919,1681128
1586041,1492321,1681914
1586041,1492423,1681284
1585699,1492649,1680834
1586158,1492351,1680280
1586001,1492519,1680618
1586051,1492231,1680241
1585973,1492225,1680340
1585987,1491816,1680204
1585738,1491703,1679848
1585855,1491215,1678945
1585773,1490945,1678137
1585749,1490787,1678867
1585605,1490341,1678791
1585581,1490218,1678771
1585453,1490309,1679107
1585612,1490223,1680085
1585774,1490214,1680372
1585839,1489846,1681280
1585602,1489745,1681529
1585743,1489587,1682397
1585487,1489584,1682268
1585459,1489591,1683131
1585075,1489322,1682845
1585075,1489033,1682677
1584930,1488604,1682471
1584857,1488519,1683154
1585350,1488496,1683711
1585083,1488073,1683105
1584980,1487198,1682693
1584836,1486968,1683033
1584826,1486429,1683235
1584981,1486413,1683060
1585033,1486222,1683121
1584868,1485948,1683837
1584940,1485883,1683741
1584769,1485558,1682865
1584736,1485813,1682968
1584615,1486169,1683285
1585073,1486095,1683652
1584903,1485628,1682282
1585169,1485203,1682616
1585136,1484770,1683353
1584885,1485074,1684259
1585052,1485254,1684881
1585026,1486130,1684842
1584543,1486617,1685593
1584543,1486765,1684837
1584859,1486333,1684532
1584727,1486122,1684445
1584683,1486154,1684735
1584626,1485763,1684755
1584698,1484852,1683544
1584337,1484127,1684166
1584287,1484136,1684585
1584361,1484199,1684242
1584308,1484318,1684722
1584121,1484093,1683995
1584177,1483881,1683489
1583794,1483650,1681813
1583983,1483738,1682171
1583747,1483339,1681496
1584151,1482939,1681863
1584119,1482448,1681875
1584003,1481761,1681073
1583622,1481645,1682191
1583838,1481790,1681174
1583632,1482059,1681441
1583473,1482237,1681375
1583473,1481699,1680592
1582919,1481559,1680036
1583156,1481428,1680338
1583154,1481716,1680308
1583083,1481694,1681736
1582871,1481477,1681068
1582979,1481665,1681000
1582907,1482392,1681540
1582817,1482998,1681765
1582535,1483047,1682460
1582735,1483066,1682447
1582751,1482642,1682945
1582661,1482468,1681921
1582453,1482994,1682294
1582785,1482927,1682493
1583008,1482668,1682725
1583059,1482645,1682307
1582919,1482490,1682618
1582631,1482464,1682971
1582677,1483075,1683998
1582812,1483417,1683836
1582607,1483561,1684113
1582423,1483623,1684334
1582423,1483219,1684883
1582188,1483046,1684760
1582127,1483011,1685059
1582107,1483473,1685060
1582330,1483357,1685191
1582180,1483266,1684797
1582079,1483509,1684929
1581963,1483531,1684531
1581992,1483645,1684293
1581928,1483742,1684650
1581985,1484240,1684079
1581996,1484187,1683636
1581875,1484482,1683582
1581935,1484893,1684483
1581997,1485124,1684458
1582250,1485807,1684281
1582289,1486397,1684811
1582283,1486630,1684533
1582111,1486772,1684203
1582410,1486414,1684874
1582526,1486812,1684312
1582459,1486700,1684163
1582231,1486403,1683297
1582231,1486433,1683323
1582242,1486268,1683293
1582329,1485690,1684020
1582274,1485332,1684140
1582242,1484903,1683305
1582121,1484952,1684044
1582204,1484977,1682644
1582206,1485211,1683211
1582427,1484967,1684085
1582305,1484801,1683640
1582141,1484495,1683364
1582162,1483792,1684210
1581939,1483655,1683853
1581617,1483672,1683598
1582050,1483599,1683756
1582025,1483457,1683198
1582028,1483530,1682988
1582142,1483160,1683094
1582003,1483353,1683066
1581694,1483194,1682436
1581759,1483632,1682486
1581609,1484354,1682489
1581609,1484690,1682428
1581463,1484715,1682718
1581623,1485215,1682370
1581632,1485943,1682085
1581795,1486594,1682763
1581666,1487423,1681409
1581879,1487683,1681280
1581931,1487605,1681544
1581805,1487088,1681740
1581824,1486834,1681550
1581447,1486545,1681551
1581527,1485980,1680933
1581288,1485941,1680037
1581539,1485607,1680404
1581767,1485390,1680735
1581776,1485383,1679748
1581583,1485389,1680125
1581399,1484900,1679675
1581507,1484185,1679861
1581542,1483469,1679403
1581450,1483250,1678997
1581061,1482950,1680182
1580894,1482650,1679995
1580894,1482690,1680336
1580755,1482496,1680155
1580911,1482758,1680938
1580865,1482292,1681123
1580936,1481678,1680939
1580643,1481640,1680290
1580457,1481632,1681079
1580686,1482124,1680929
1580644,1482398,1680991
1580503,1482836,1681854
1580570,1482657,1681434
1580276,1482480,1681811
1580378,1482734,1682872
1580590,1482997,1683051
1580943,1483571,1683021
1580880,1483390,1682666
1580976,1483264,1683437
1580985,1483052,1683585
1580918,1482902,1684257
1580667,1482554,1683980
1580573,1482863,1684799
1580195,1482809,1685179
1580195,1482724,1683514
1580370,1482257,1684568
1580163,1482467,1684590
1580248,1482339,1685334
1580296,1482178,1685211
1580446,1482637,1685042
1580027,1483717,1684772
1579970,1484274,1684669
1580004,1484399,1684495
1580147,1484279,1684743
1580077,1483751,1683639
1579929,1483082,1684406
1579653,1482861,1684022
1579877,1482957,1683907
1579730,1482758,1683826
1580235,1482687,1683191
1580135,1482623,1683287
1580258,1482670,1683584
1579934,1483082,1682548
1580181,1483552,1682669
1580168,1483755,1681895
1579902,1483332,1681966
1579902,1482665,1681535
1579697,1482345,1681716
1579949,1482122,1682015
1579777,1482524,1680830
1579862,1482469,1681034
1579687,1482213,1680949
1579783,1481674,1680431
1579731,1481114,1679994
1579769,1481280,1680196
1579446,1481289,1681820
1579634,1481267,1681742
1579536,1480867,1681892
1579495,1480793,1682117
1579419,1480759,1682355
1579509,1481210,1682103
1579600,1481136,1682643
1579156,1481258,1681321
1579622,1480902,1682066
1579702,1480626,1681452
1579476,1480407,1681135
1579627,1480059,1681659
1579355,1479827,1682227
1579234,1479326,1681595
1579234,1478610,1681886
1578764,1478245,1683531
1579219,1478270,1683445
1578882,1478067,1682808
1578870,1477743,1682790
1578705,1477804,1681582
1578718,1477895,1680146
1578631,1478186,1679471
1578720,1478631,1679258
1578830,1479170,1678827
1578792,1479381,1677927
1578561,1479152,1676818
1578499,1479390,1676770
1578361,1479757,1676847
1578934,1479620,1676911
1578916,1479622,1676374
1578934,1480173,1675885
1579023,1480058,1675959
1578705,1480363,1676680
1578930,1480968,1675591
1578787,1481629,1676251
1578649,1481956,1675959
1578649,1482486,1674024
1578783,1482606,1674181
1578828,1482741,1673718
1578990,1482978,1674127
1578856,1483328,1673054
1579079,1483530,1673208
1579092,1485248,1671588
1579268,1486404,1672028
1579112,1486543,1671077
1579220,1487208,1671489
1579212,1487090,1671499
1579177,1486975,1672062
1579063,1487070,1671887
1579376,1487533,1670933
1579323,1486852,1670745
1579358,1486438,1671323
1579220,1485503,1670385
1579270,1484819,1669700
1579150,1484002,1668360
1579056,1483639,1667555
1579177,1482628,1666904
1579028,1482069,1667378
1578507,1480940,1666453
1578507,1480731,1665825
1578666,1480817,1663694
1578574,1480841,1664179
1578811,1480440,1664147
1578642,1479802,1664056
1578373,1478673,1663283
1578131,1478238,1662641
1578224,1478186,1660973
1578191,1478059,1660867
1578291,1477934,1660918
1578072,1477642,1661110
1578012,1477688,1660337
1578084,1478189,1659845
1578214,1479172,1659563
1578513,1479779,1658721
1578664,1480857,1658897
1578662,1481368,1659444
1578677,1481427,1659007
1578536,1481454,1658561
1578981,1481122,1658625
1578545,1481008,1657558
1578303,1480953,1657730
1578303,1480672,1657645
1578239,1480047,1657516
1578327,1479327,1657443
1578318,1478545,1657812
1578227,1477822,1657564
1578297,1477347,1657469
1577896,1477103,1657407
1577594,1477032,1656952
1577576,1476620,1656936
1577749,1476751,1656781
1577439,1476504,1656402
1577287,1476031,1656175
1577198,1476154,1656720
1577204,1476187,1656831
1577326,1475698,1656169
1577540,1475345,1656363
1577541,1475388,1657478
1577534,1475287,1657378
1577574,1475763,1656157
1577357,1476290,1656173
1577765,1476889,1656501
1577102,1477525,1656575
1576986,1477745,1657275
1576986,1477945,1657102
1576998,1477864,1656589
1577078,1478215,1655656
1577179,1478892,1656018
1577320,1479468,1656159
1577150,1479759,1656984
1577513,1480062,1656592
1577289,1480124,1656171
1577451,1480122,1657111
1577555,1480627,1658079
1577523,1481473,1658294
1577595,1481862,1659025
1577623,1483076,1659755
1577796,1483943,1659797
1578292,1484376,1660071
1578155,1484498,1659637
1578199,1484286,1660447
1578126,1483747,1661023
1578245,1483450,1661414
1578208,1483597,1662014
1578097,1484047,1662957
1577706,1484141,1663424
1577706,1483810,1664188
1577808,1483815,1663914
1577964,1483465,1663699
1578041,1483655,1664149
1577770,1483195,1664037
1577798,1482651,1663598
1577729,1482396,1663517
1577748,1481919,1663856
1577592,1481768,1664023
1577552,1481868,1664043
1577319,1481749,1665510
1577407,1481645,1665536
1577201,1481594,1665950
1577438,1481481,1665602
1577307,1480831,1666699
1577625,1480524,1666421
1577494,1480270,1667213
1577501,1479883,1668069
1577279,1479862,1667828
1577209,1480584,1668431
1577331,1480982,1668781
1577282,1482217,1669343
1577282,1482498,1672011
1577189,1482118,1673865
1577292,1481439,1675027
1577496,1480942,1676990
1577298,1479946,1677710
1577268,1479818,1678378
1577408,1481124,1680584
1577369,1482195,1681650
1577394,1482594,1682393
1577482,1482876,1682414
1577454,1483523,1683455
1577784,1483630,1683072
1577684,1484343,1683295
1577817,1485189,1683474
1577846,1485667,1683489
1578106,1485762,1684058
1578115,1485681,1683757
1578095,1485251,1685433
1578079,1484935,1684930
1577797,1484695,1684368
1577934,1484421,1684343
1577591,1484459,1684267
1577336,1484081,1683505
1577336,1483529,1683103
1577420,1483081,1683910
1577364,1482634,1684055
1577409,1482294,1684557
1577218,1481692,1685399
1577221,1481510,1686869
1576817,1481727,1686919
1576812,1481686,1687263
1576860,1480977,1688389
1576977,1480296,1689130
1576734,1479569,1689781
1576650,1478577,1690569
1576396,1477988,1691655
1576635,1478111,1692177
1576549,1478007,1691295
1576927,1478539,1691690
1576572,1478913,1692497
1576871,1479494,1693614
1576544,1480486,1692774
1577002,1481541,1692719
1577046,1483111,1692430
1576900,1484348,1693290
1576788,1485199,1694119
1576788,1486601,1694873
1576917,1487042,1694472
1577022,1487740,1693800
1577149,1487366,1693022
1576960,1486883,1693685
1577123,1486753,1692980
1576961,1486909,1693006
1577197,1487447,1693429
1577159,1487717,1693091
1577365,1487725,1692901
1577128,1487540,1693289
1577537,1487893,1693207
1577374,1488468,1692460
1577373,1488405,1692255
1577547,1487868,1691939
1577716,1487027,1691598
1577497,1486025,1691778
1577385,1485437,1692586
1577176,1485061,1692059
1577480,1484834,1691001
1577063,1484867,1691576
1576778,1484823,1691986
1576778,1485004,1692260
1576609,1485447,1692334
1576713,1485653,1692912
1576803,1486078,1691873
1577008,1485742,1692967
1576639,1485420,1692605
1576792,1485463,1691839
1576669,1485550,1692057
1576998,1485633,1691700
1576913,1485712,1691035
1577163,1485980,1691101
1577016,1485907,1692364
1577009,1486120,1691100
1576844,1486567,1691147
1577422,1486912,1690675
1577485,1487187,1690040
1577539,1487624,1689745
1577531,1487987,1690358
1577624,1488363,1689583
1577488,1488780,1687998
1577887,1489412,1688243
1577404,1489508,1687974
1577404,1489368,1688331
1577468,1489458,1688281
1577242,1489950,1688032
1577482,1490244,1688143
1577470,1491003,1687043
1577649,1491051,1688131
1577520,1491297,1688242
1577757,1491187,1688234
1577435,1490829,1688950
1577585,1490872,1687879
1577203,1490238,1687987
1577350,1489238,1688863
1577172,1489294,1688797
1577324,1489624,1689004
1577522,1489803,1688150
1577932,1490218,1687688
1577660,1490580,1688032
1577814,1490926,1687973
1577384,1490939,1687519
1577692,1491424,1687395
1577630,1491421,1686948
1577599,1492038,1687426
1577599,1491891,1687602
1577451,1492091,1687165
1577535,1491501,1686952
1577618,1491668,1686889
1577855,1491624,1687026
1577624,1491625,1686795
1577673,1491379,1687042
1577481,1491697,1687714
1577610,1491930,1688011
1577628,1492090,1687593
1577710,1492140,1688080
1577563,1492406,1688088
1577665,1492803,1687973
1577310,1492999,1688363
1577664,1493760,1688406
1577786,1494494,1688488
1578085,1495259,1688545
1578025,1495839,1687750
1578189,1496071,1688232
1577866,1496036,1688570
1578225,1496402,1687799
1578053,1496807,1688177
1577943,1497419,1689111
1577943,1497793,1689294
1577976,1498529,1688709
1578260,1498511,1687416
1578161,1498584,1688180
1578239,1498277,1687267
1578275,1497867,1687009
1578268,1497871,1687115
1578271,1498065,1687444
1578377,1497951,1687969
1577982,1498555,1688035
1578235,1498627,1687843
1578148,1498667,1687863
1578136,1498915,1688986
1578166,1499236,1688724
1578459,1499221,1687756
1578610,1499295,1688171
1578551,1499167,1688905
1578501,1499331,1689403
1578670,1499236,1689438
1578434,1499126,1690123
1578698,1499148,1689370
1578368,1499132,1688752
1578139,1498694,1688865
1578139,1498644,1689828
1577906,1497652,1690724
1578101,1497375,1690742
1578145,1496837,1690203
1578090,1496750,1689808
1578007,1497019,1689789
1577964,1497532,1690759
1577672,1497880,1690837
1577917,1498094,1690685
1577917,1498166,1690799
1577944,1497766,1690812
1577645,1497010,1691543
1577715,1496298,1691068
1577473,1496208,1691431
1577854,1496396,1691526
1578152,1496664,1690747
1577988,1497256,1691022
1577676,1497431,1691202
1577736,1497873,1691169
1577901,1498784,1690975
1577791,1499355,1690923
1577493,1499738,1691256
1577493,1499906,1692311
1577744,1500237,1692688
1577592,1500479,1693581
1577769,1500461,1693267
1577799,1500275,1693911
1577739,1499863,1693746
1577464,1499993,1694780
1577317,1500230,1695388
1577411,1500112,1695487
1577724,1500225,1695007
1577646,1500104,1694939
1577725,1499944,1694997
1577376,1499810,1695795
1577594,1500443,1695506
1577694,1500820,1695971
1578067,1501539,1695498
1577940,1501851,1694401
1577937,1502085,1694364
1578064,1502594,1694956
1578050,1502998,1694097
1578102,1503117,1694336
1578003,1503555,1692450
1577762,1503731,1693053
1577762,1503664,1692994
1577823,1503898,1692976
1577850,1504178,1692778
1577853,1504701,1693273
1577968,1504599,1692062
1577971,1504712,1693156
1577878,1504873,1692708
1577896,1504977,1693160
1577868,1504444,1692914
1577894,1504201,1693557
1577722,1503839,1692697
1577669,1503650,1692351
1577513,1503523,1693049
1577492,1503635,1693151
1577431,1503420,1692778
1577819,1503174,1692722
1577780,1502935,1692545
1577570,1502089,1693003
1577541,1501480,1693495
1577480,1500601,1693310
1577379,1500045,1692788
1577387,1499612,1693241
1577022,1499408,1693118
1577022,1498718,1694085
1576843,1498228,1693186
1576873,1497874,1693768
1576717,1497180,1692825
1576689,1496582,1692917
1576738,1495992,1693146
1576473,1495547,1693558
1576227,1495736,1693654
1576345,1495459,1694125
1576275,1495455,1693985
1576405,1495110,1693630
1576094,1494873,1694332
1576090,1494899,1694779
1576179,1494462,1695591
1576368,1494357,1694722
1576355,1494249,1694225
1576252,1494397,1694474
1576050,1494430,1694486
1576192,1494480,1694091
1576236,1494871,1693678
1576188,1495006,1694081
1575801,1494899,1693285
1575656,1494184,1693473
1575656,1493903,1693211
1575723,1493765,1692665
1575751,1494200,1692982
1575848,1494325,1691525
1575714,1494646,1691789
1575665,1496019,1691767
1575887,1496809,1691241
1575743,1496696,1690999
1575982,1496464,1691044
1575928,1496613,1690768
1576152,1496479,1690306
1575953,1496650,1689776
1576116,1497141,1690558
1576229,1497606,1689826
1576683,1497846,1689842
1576631,1497751,1689433
1576304,1497587,1688626
1576335,1497263,1689160
1576448,1497454,1689078
1576226,1497391,1689036
1576343,1497940,1688219
1576074,1498620,1687781
1576074,1498797,1688505
1576184,1498471,1688054
1576148,1498728,1687572
1576334,1498923,1687329
1576175,1499157,1687370
1576447,1498923,1689011
1576196,1498892,1688157
1576233,1498954,1688330
1575933,1498131,1688011
1576142,1498168,1687484
1575917,1497752,1687842
1575978,1497118,1688110
1575685,1496661,1688425
1575838,1496426,1689472
1575895,1496276,1689828
1576232,1496664,1689712
1576019,1496440,1689761
1576066,1496371,1690093
1575967,1496405,1690209
1576099,1496637,1690230
1576311,1496890,1690850
1576203,1497437,1691908
1575752,1497111,1692653
1575752,1496635,1694412
1575805,1496228,1696685
1575654,1496127,1698106
1575841,1495906,1698566
1575567,1496199,1699716
1575370,1496111,1699739
1575581,1496370,1699811
1575631,1496650,1700310
1575554,1496203,1699792
1575627,1496134,1700150
1575456,1495877,1700308
1575516,1494934,1701082
1575376,1495255,1701063
1575708,1495541,1700770
1575561,1495223,1699835
1575942,1495240,1698991
1575669,1495210,1698192
1575654,1495073,1698757
1575325,1494721,1698054
1575443,1494767,1697549
1575337,1494502,1697620
1575300,1494248,1696812
1575300,1493665,1696706
1574935,1493544,1696051
1574999,1493366,1696124
1574827,1493608,1695369
1574852,1493707,1695747
1574920,1493337,1696827
1574388,1492628,1697108
1574392,1492556,1697438
1574532,1493024,1697061
1574472,1493153,1697295
1574518,1492949,1696784
1574409,1492703,1695983
1574461,1492875,1697782
1574318,1493145,1697548
1574579,1493285,1698119
1574673,1493362,1698242
1574744,1493227,1698441
1574500,1492977,1699180
1574852,1492992,1700343
1574760,1493060,1699953
1574448,1493071,1699500
1574293,1493413,1699087
1574182,1493575,1697012
1574182,1493773,1696809
1574180,1494267,1696128
1574441,1494865,1696285
1574446,1495432,1695868
1574629,1495081,1696443
1574522,1494705,1695650
1574684,1495648,1695462
1574475,1496080,1694710
1574598,1496113,1694280
1574602,1495801,1694081
1574546,1495036,1694062
1574245,1494224,1693972
1574212,1494423,1693355
1574147,1494467,1692640
1574330,1494992,1692956
1574286,1495024,1692276
1574379,1495284,1692622
1574339,1494961,1692826
1574368,1495045,1693259
1574167,1494693,1693069
1574097,1494969,1692582
1573881,1494278,1693239
1573881,1494260,1693119
1573753,1494187,1693309
1573660,1494057,1693284
1573760,1494121,1693115
1573651,1493818,1693362
1573688,1492927,1693521
1573604,1492506,1693335
1573538,1492811,1693029
1573622,1492786,1693181
1573623,1493097,1694025
1573639,1493225,1694745
1573632,1492878,1694805
1573398,1492058,1695778
1573559,1492155,1697377
1573509,1492218,1697245
1573812,1492598,1696326
1573655,1492232,1696344
1573729,1492049,1697812
1573658,1491775,1698928
1573674,1491578,1699829
1573630,1491395,1699339
1573576,1491347,1700204
1573132,1491242,1701111
1573132,1490870,1700420
1573173,1490269,1700818
1573182,1490243,1700953
1573319,1490552,1702108
1573044,1490327,1702380
1573099,1490029,1701497
1572609,1489816,1701669
1572558,1489860,1702167
1572544,1489608,1702181
1572720,1490216,1701840
1572599,1490158,1702399
1572597,1489937,1703089
1571948,1489722,1703305
1572249,1489424,1703751
1572395,1489412,1703959
1572847,1489458,1704300
1572717,1489424,1704744
1572514,1489320,1705312
1572491,1488982,1704933
1572432,1489045,1706100
1572165,1489163,1706178
1572270,1489332,1705999
1571913,1489449,1706580
1571913,1489485,1706993
1572175,1489379,1706579
1572076,1489431,1706991
1572133,1489548,1707604
1572177,1489467,1707127
1571974,1489391,1708329
1571891,1490068,1708389
1571950,1490396,1708815
1572047,1490883,1708863
1572196,1491567,1709512
1572202,1491341,1709570
1572030,1491477,1710310
1571937,1492005,1711096
1572113,1492117,1711135
1572164,1492280,1711270
1572494,1492722,1711305
1572417,1492527,1711362
1572488,1492339,1711619
1572286,1491954,1711625
1572333,1492406,1711383
1572311,1492622,1711273
1572135,1492723,1711347
1572013,1492471,1712098
1572013,1492919,1711763
1572043,1492747,1711303
1572143,1493100,1711849
1572110,1493107,1711284
1571992,1493125,1711169
1572012,1492849,1711406
1571877,1493399,1711600
1571878,1493630,1712345
1571862,1493838,1712581
1571948,1493846,1711591
1571809,1493541,1712058
1571799,1492652,1711921
1571774,1493685,1712600
1571718,1494082,1712908
1572120,1494243,1711783
1572150,1494367,1711309
1571914,1494624,1712167
1571976,1494644,1711689
1571934,1495003,1711713
1571820,1495135,1711124
1571834,1495900,1711237
1571803,1496370,1711359
1571803,1496436,1711501
1571663,1497005,1710701
1571831,1497686,1709730
1571860,1498415,1710794
1571994,1498557,1710119
1572037,1498454,1711417
1571983,1497980,1711270
1572018,1497947,1711508
1571882,1497788,1711337
1572241,1498032,1710939
1572095,1498093,1711258
1572153,1498070,1710990
1572104,1498243,1710486
1572192,1498346,1711421
1571951,1497940,1710273
1572407,1498055,1710310
1572422,1498009,1710874
1572261,1498044,1710908
1572175,1498209,1711200
1572313,1498735,1710385
1572287,1499128,1710843
1572265,1499441,1712125
1572265,1499133,1711500
1571890,1498932,1711663
1571944,1498504,1712383
1571728,1498204,1712567
1571640,1497157,1713064
1571367,1495966,1713021
1571284,1494824,1712790
1570859,1493338,1713562
1570722,1493044,1713556
1570603,1492450,1714245
1570605,1491808,1713907
1570356,1490356,1713477
1570318,1489346,1714124
1570271,1488789,1714667
1570173,1488191,1714602
1570348,1487793,1714808
1570314,1487639,1714935
1570191,1487143,1714581
1570165,1486990,1715500
1569707,1486841,1715880
1569968,1486958,1716273
1569770,1487368,1715907
1569649,1487350,1716416
1569649,1486947,1715943
1569567,1487423,1716414
1569556,1487005,1717649
1569513,1487400,1716680
1569546,1487316,1717583
1569566,1487506,1717727
1569639,1488454,1717553
1569441,1488479,1716808
1569679,1488192,1715791
1569538,1487977,1715617
1569616,1487743,1714639
1569295,1487193,1714447
1569265,1486896,1713672
1569202,1486682,1714052
1569341,1486247,1713603
1569319,1485698,1713241
1569507,1484976,1713780
1569334,1483948,1713385
1569054,1483552,1713594
1568988,1483022,1713325
1569078,1483351,1713587
1568490,1483541,1713162
1568490,1483385,1712998
1568465,1483197,1712726
1568304,1482740,1713119
1568516,1482567,1712267
1568209,1482375,1712907
1568157,1482230,1712164
1568070,1481887,1711670
1568417,1482258,1712541
1568209,1482317,1712743
1568415,1483218,1713082
1568301,1483133,1713582
1568332,1483604,1713640
1568028,1483717,1712893
1568394,1484582,1712851
1568226,1484985,1713522
1568435,1485303,1714151
1568556,1485228,1714770
1568748,1485217,1714283
1568785,1484904,1714210
1568845,1485210,1714963
1568608,1485104,1716105
1568692,1485553,1716334
1568341,1485279,1716014
1568341,1484959,1716553
1568484,1484807,1716801
1568438,1484909,1716975
1568533,1484956,1717082
1568346,1485597,1717156
1568565,1485424,1716740
1568388,1485428,1716711
1568730,1485223,1716801
1568601,1485385,1717567
1568506,1485551,1718065
1568325,1485284,1718255
1568486,1484997,1718645
1568224,1484406,1719367
