GREEN,RED,IR
1388943,1687801,1937350
1388949,1688385,1937176
1389220,1688172,1937891
1388782,1687784,1937891
1388370,1687742,1937881
1388622,1687221,1936784
1388461,1687183,1936870
1388315,1687316,1936578
1388127,1687768,1936589
1388349,1687903,1937471
1388159,1687949,1936891
1387851,1687459,1936428
1388110,1687833,1938646
1388059,1687368,1938706
1387720,1687250,1937801
1387577,1686704,1938814
1387258,1686444,1938704
1387742,1685343,1937790
1387418,1685011,1938315
1387243,1684565,1939862
1387055,1683156,1938951
1387156,1682855,1937491
1387095,1682749,1938076
1386778,1681543,1938526
1386787,1681301,1938253
1386712,1681318,1939392
1386859,1681345,1938522
1386763,1681384,1939385
1386630,1681205,1939813
1386651,1681134,1939247
1386603,1681048,1938597
1386675,1680472,1939542
1386537,1680147,1938738
1386474,1679227,1938616
1386706,1679103,1938223
1386605,1678788,1938580
1386673,1678775,1938542
1386856,1678476,1938906
1386893,1679106,1939608
1386747,1679715,1938994
1386514,1679511,1938997
1386859,1679724,1938877
1387030,1679396,1939996
1386773,1679567,1939445
1387155,1679216,1939058
1386669,1679029,1939685
1386403,1679354,1939990
1386038,1679527,1940612
1385704,1679041,1940344
1385898,1677323,1940589
1385669,1675592,1940390
1385644,1675533,1941554
1385568,1674514,1941325
1385779,1674567,1941433
1385155,1674243,1940450
1384808,1674435,1940725
1385044,1674029,1940709
1384885,1673730,1940452
1385069,1673550,1940334
1384886,1672381,1941566
1384642,1671278,1941257
1384963,1670672,1940674
1384486,1668742,1941311
1384458,1667770,1941140
1384293,1667710,1941512
1384149,1667196,1940908
1384394,1666805,1940349
1384326,1666575,1941337
1383963,1666372,1941823
1383898,1665542,1942944
1384076,1665257,1942331
1383974,1664797,1942082
1384080,1664803,1942809
1384168,1664443,1943278
1383932,1663907,1943270
1383736,1663894,1943465
1383875,1663710,1942844
1384029,1663651,1941793
1384157,1663022,1942520
1384196,1662729,1942458
1384157,1662273,1942640
1384143,1661960,1943886
1384176,1661786,1943956
1383895,1661949,1942944
1383782,1661499,1942631
1383782,1661232,1943760
1383818,1660962,1943767
1383800,1660665,1943637
1383935,1659968,1943242
1383878,1659506,1942884
1383863,1658601,1942638
1383813,1657495,1943363
1383693,1657060,1942589
1383906,1656361,1941819
1383760,1655993,1941287
1383652,1655572,1942621
1383571,1654787,1943808
1383595,1654165,1942979
1383805,1653731,1943388
1383865,1653028,1942748
1383969,1652407,1942466
1384114,1651840,1942373
1384041,1650819,1942540
1383820,1650421,1942580
1383722,1649999,1943004
1383917,1649793,1943458
1383460,1649642,1942490
1383460,1649527,1943875
1383364,1649084,1942237
1383236,1648706,1942896
1383176,1648805,1944162
1383287,1648340,1943826
1383382,1647748,1944542
1382837,1647779,1945966
1382360,1647214,1943358
1382321,1647393,1943696
1382540,1646712,1943114
1382335,1646469,1944334
1382083,1645317,1944023
1381689,1643688,1943390
1381862,1643480,1944813
1381535,1643841,1944387
1381313,1644036,1943475
1381641,1644688,1943354
1381754,1644839,1944054
1381341,1645507,1943839
1381129,1645687,1943839
1381009,1645877,1945603
1380967,1645999,1944479
1381135,1646529,1945599
1380992,1646816,1945307
1380830,1646447,1943934
1380721,1646343,1944756
1380711,1646631,1944013
1380616,1646301,1945179
1380995,1646005,1944091
1380949,1644982,1945883
1380826,1644247,1945303
1380613,1643818,1945025
1380200,1643353,1945555
1380549,1643401,1944369
1380345,1642933,1945278
1380396,1642606,1944064
1380499,1642741,1945013
1380159,1642924,1945826
1379622,1643071,1945131
1380236,1642500,1945470
1380181,1642448,1944536
1379989,1643054,1945602
1379935,1643436,1945500
1380082,1644526,1945946
1379986,1645290,1945337
1379936,1645859,1945838
1380343,1646207,1945219
1379976,1645991,1947298
1380053,1645964,1946944
1379944,1646104,1945685
1380032,1646713,1945922
1380189,1646911,1945216
1379739,1647205,1946395
1380118,1647914,1945844
1379882,1648446,1946166
1380328,1649156,1945413
1380349,1649296,1945884
1379940,1649729,1946187
1380069,1650361,1945581
1380016,1650593,1946332
1379836,1650712,1946802
1379245,1650974,1946109
1379102,1651117,1947201
1379389,1651118,1947573
1379129,1651252,1944798
1379112,1651866,1945585
1378807,1651911,1945958
1378711,1652717,1945622
1378975,1653103,1945373
1378824,1653715,1946925
1378957,1653456,1945595
1378831,1654109,1945797
1378931,1653857,1945663
1378548,1654571,1945811
1378673,1654218,1945293
1378578,1654789,1946547
1378328,1655046,1945491
1378328,1655295,1945350
1378412,1655663,1946346
1378361,1656214,1946194
1378170,1656369,1946687
1378300,1656447,1946008
1378241,1656456,1947144
1378070,1656942,1946114
1377767,1657229,1943974
1377537,1656848,1946240
1377634,1656446,1945319
1377575,1657782,1945270
1377799,1659499,1945659
1377715,1660311,1945552
1377225,1659889,1945765
1377572,1659971,1946981
1377659,1659758,1946084
1377576,1659265,1946205
1377273,1658697,1945479
1377373,1658334,1945649
1377288,1658092,1944273
1377676,1658108,1945805
1377517,1658297,1945756
1377515,1658306,1945370
1377063,1659079,1945774
1377685,1659342,1945643
1377872,1658922,1946119
1377973,1658147,1946026
1377831,1658384,1945656
1377944,1657925,1945883
1377679,1657438,1947173
1376940,1657213,1947047
1377686,1656359,1946874
1377481,1655920,1946405
1377706,1656009,1946177
1377555,1656191,1946869
1377639,1656666,1946722
1378033,1656742,1947050
1377498,1656697,1947245
1377649,1655814,1946907
1377678,1654081,1947074
1377502,1652922,1947040
1377375,1651558,1947047
1377091,1650047,1947199
1376708,1648367,1946498
1376613,1646766,1948292
1376653,1645443,1947309
1376596,1643843,1947938
1376530,1642918,1946622
1376458,1641733,1946771
1376177,1640842,1947873
1376311,1640663,1946325
1376306,1640437,1947659
1376477,1640408,1947797
1376407,1639897,1947904
1376375,1639198,1947014
1376477,1638553,1947277
1376115,1637864,1947976
1376417,1637257,1947710
1376098,1636144,1948409
1375638,1635057,1948381
1375638,1633751,1948111
1375608,1632461,1948234
1375712,1631781,1948300
1375642,1630741,1947588
1375518,1629788,1948251
1375440,1628858,1947002
1375088,1628368,1948987
1375185,1627421,1948885
1375114,1626870,1948174
1374938,1626031,1948751
1374836,1625482,1948986
1374815,1624711,1949462
1374702,1623873,1947592
1374611,1623380,1948135
1374726,1622407,1948004
1375053,1621369,1948122
1374879,1620521,1947748
1374976,1619777,1948582
1374551,1619239,1949069
1374694,1619195,1947941
1374678,1618376,1946609
1374530,1617839,1947953
1374310,1617210,1947386
1374310,1616250,1947555
1374374,1615678,1947952
1374373,1615166,1948160
1374545,1614658,1946980
1374552,1613959,1948123
1374424,1613222,1947430
1374200,1612122,1946900
1374181,1611523,1946627
1374179,1610418,1946518
1374363,1609511,1946315
1374077,1608546,1945889
1373964,1607196,1947272
1373856,1606696,1946815
1374018,1606311,1946831
1374038,1605724,1946666
1374227,1605804,1947111
1374137,1605950,1946549
1374163,1605584,1947961
1373800,1605036,1946734
1374109,1604703,1946184
1373771,1603656,1947339
1373738,1602597,1948254
1373970,1602420,1946815
1374006,1601729,1946930
1373801,1601357,1947728
1374058,1600264,1946245
1373820,1599569,1947459
1373718,1599513,1946780
1373669,1599025,1948036
1373525,1597922,1946640
1373374,1594828,1945752
1373436,1592548,1947560
1373392,1590505,1948108
1372696,1590972,1947585
1372692,1591056,1947443
1372529,1590192,1946900
1372342,1589817,1947560
1372293,1588842,1947360
1371962,1588477,1948128
1371430,1587881,1948245
1371790,1587302,1948500
1371689,1587389,1947531
1371775,1586881,1948188
1371603,1586665,1948878
1371593,1586615,1948056
1371272,1586444,1947408
1371304,1586708,1947778
1371281,1586203,1947346
1371207,1585324,1947353
1371399,1584771,1947685
1371349,1584222,1947557
1371092,1584184,1948328
1371233,1584176,1946776
1371215,1584433,1947606
1370876,1584476,1949356
1370456,1584187,1949020
1370456,1584412,1948497
1370575,1584670,1949323
1370543,1584365,1949454
1370690,1584959,1948197
1370489,1584421,1948663
1370264,1584603,1948668
1370395,1584713,1949422
1370007,1584878,1949135
1370337,1583787,1948853
1369848,1583815,1948430
1370065,1584127,1949373
1369924,1584170,1948897
1369690,1584421,1949127
1369588,1584434,1950817
1369947,1585282,1949596
1369743,1584693,1951199
1369355,1585311,1950534
1369841,1585533,1951173
1369708,1585198,1949812
1369666,1584996,1950642
1369538,1584904,1951447
1369312,1585200,1949997
1369103,1585613,1951007
1369279,1585464,1950830
1369376,1585976,1951792
1369294,1586228,1950831
1369236,1586928,1952708
1369204,1587087,1952198
1369308,1587691,1952042
1369413,1588111,1952099
1369572,1588708,1952814
1369779,1589498,1952265
1369809,1590217,1952816
1369617,1590474,1951700
1369546,1590877,1950504
1369681,1591237,1951699
1369206,1591454,1951270
1369440,1591580,1950435
1369630,1592292,1951375
1369453,1592960,1950397
1369582,1593549,1950446
1369401,1593416,1951657
1369485,1593614,1951295
1369424,1593614,1951621
1369438,1593273,1951430
1369518,1592735,1952089
1369562,1594060,1951449
1369608,1594887,1951280
1369356,1594541,1952135
1369480,1594853,1952308
1369549,1594536,1953940
1368944,1594803,1952327
1368837,1594862,1952562
1368618,1594651,1953682
1368537,1593859,1953203
1368395,1592861,1953666
1368110,1594141,1953309
1368292,1596037,1953607
1368022,1596643,1952729
1367705,1596615,1952976
1367912,1596652,1953131
1367686,1596074,1952803
1367720,1595830,1953100
1367835,1595643,1953457
1367809,1595819,1953628
1367494,1596492,1954277
1367342,1596273,1954143
1367326,1596662,1953871
1367305,1596570,1954408
1367420,1596597,1954589
1367456,1596914,1953278
1367161,1596459,1954982
1367154,1596598,1955306
1367284,1597269,1955046
1367249,1597667,1954046
1367560,1598278,1954988
1367453,1598879,1954467
1367467,1598809,1955374
1367357,1598859,1954749
1367368,1599039,1954125
1367272,1599171,1954707
1367056,1598481,1953660
1367100,1598745,1954338
1367235,1598815,1956230
1367302,1598818,1956286
1367407,1598778,1955317
1367069,1599139,1955077
1366752,1599131,1954496
1366802,1598293,1955178
1366914,1597193,1954872
1366900,1597020,1955599
1366891,1596371,1954630
1366813,1595634,1954878
1366890,1595741,1955130
1366844,1596180,1955069
1367051,1596482,1955519
1367221,1596961,1955748
1367166,1597022,1954695
1367081,1596638,1955011
1367110,1596601,1954612
1367178,1596375,1954613
1367276,1595989,1954782
1366982,1595555,1955154
1366982,1594682,1953547
1366732,1593870,1956094
1366771,1592967,1956101
1367030,1592556,1956192
1366949,1591825,1957010
1366931,1590695,1956010
1366967,1589707,1957324
1366888,1589412,1956657
1366770,1588930,1955603
1366833,1588527,1955962
1366819,1588246,1956246
1366818,1587535,1955220
1366739,1587147,1956209
1366942,1586872,1955399
1367015,1586924,1956563
1367188,1586766,1954599
1366969,1586389,1955424
1366852,1585801,1955441
1366786,1585420,1955561
1366700,1584952,1954944
1366606,1584619,1954300
1366444,1584202,1955599
1365979,1583625,1956123
1365979,1583140,1955052
1366164,1582482,1955345
1366181,1582012,1955472
1366153,1581145,1955142
1366019,1580379,1957100
1365862,1580040,1955724
1365839,1579990,1956495
1365753,1579658,1954686
1365653,1579399,1955598
1365765,1579386,1956314
1365561,1578951,1956987
1365710,1578634,1956018
1365712,1579138,1955987
1365740,1577501,1956875
1365242,1575521,1956805
1365438,1574989,1956484
1365545,1574149,1956030
1365579,1573575,1956689
1365203,1572945,1956646
1365070,1572506,1956153
1364796,1571885,1955962
1364795,1570794,1956399
1364999,1570479,1956208
1364820,1570120,1957235
1364821,1569357,1956449
1364723,1567642,1956670
1364975,1566784,1956216
1364896,1566570,1956949
1364691,1565564,1956315
1365025,1565744,1956252
1364731,1565281,1957149
1364799,1564947,1957071
1364798,1564687,1956680
1364563,1564927,1956447
1364930,1564668,1957103
1364574,1564587,1958525
1364765,1563540,1957606
1364667,1562376,1957242
1364962,1563130,1957158
1364932,1563149,1957762
1364831,1560738,1958542
1364819,1560123,1956577
1364788,1559571,1956328
1364878,1558732,1958060
1364779,1558924,1957974
1364620,1559061,1958146
1364192,1559234,1957337
1364422,1558561,1957109
1364571,1558765,1955977
1364373,1558269,1956249
1364191,1557682,1956549
1364058,1557048,1956307
1363820,1557164,1957811
1364120,1557178,1958696
1364022,1557741,1958022
1363870,1556861,1957646
1363617,1556036,1958522
1363604,1556224,1958663
1363813,1555777,1958804
1363894,1555659,1957192
1363536,1555516,1956966
1363416,1555473,1956856
1363188,1555739,1958594
1363391,1556036,1959909
1363269,1555606,1958664
1362985,1554561,1958405
1363294,1554705,1958682
1363186,1554807,1959325
1362703,1555888,1959311
1363078,1556270,1958553
1363130,1556589,1958413
1362851,1557101,1957799
1362838,1557174,1958260
1363114,1556533,1958691
1363141,1556838,1958303
1362865,1556497,1957637
1362686,1556205,1958329
1362895,1555790,1957551
1362865,1555654,1957609
1363102,1557217,1958328
1363078,1559516,1958411
1363092,1561480,1957242
1363294,1561821,1957208
1363611,1561972,1956734
1363259,1562465,1958084
1363199,1562349,1956772
1363117,1561992,1957100
1363277,1561636,1957783
1363211,1560884,1957288
1363074,1560802,1957854
1363197,1560067,1957328
1363082,1559103,1957246
1363200,1557593,1956806
1363331,1556445,1956695
1362934,1555148,1958402
1362701,1554233,1958058
1362863,1553938,1957150
1362648,1553518,1957845
1362394,1552968,1958126
1362286,1553023,1957788
1362658,1553042,1959316
1362266,1553123,1958077
1362404,1554052,1957414
1362007,1554562,1958147
1362330,1553216,1957464
1362184,1551961,1958286
1361992,1551996,1959074
1362082,1552358,1957593
1361972,1552166,1956614
1361963,1552194,1957331
1362098,1552156,1958087
1361894,1552316,1957913
1361764,1552360,1957059
1361779,1552400,1956674
1361848,1552488,1957212
1361665,1552469,1956801
1361588,1552628,1957625
1361670,1553055,1958574
1361518,1553750,1959375
1361785,1554291,1959257
1361946,1554741,1958571
1361779,1554687,1957646
1362039,1553652,1957654
1362026,1552457,1958139
1361663,1550589,1958687
1361926,1550430,1960101
1361788,1550203,1958485
1361721,1550014,1959208
1361590,1549782,1960663
1361717,1549442,1959347
1361646,1549099,1959479
1361776,1548704,1958546
1361637,1548115,1959653
1361652,1547455,1958905
1361450,1546736,1958536
1361498,1546372,1958425
1361733,1546007,1959104
1362087,1545415,1959790
1361767,1544935,1960617
1361707,1543714,1959438
1361653,1543060,1960356
1361740,1542395,1958670
1361680,1541823,1958848
1361647,1541174,1959034
1361206,1540923,1959085
1361206,1540655,1959770
1361532,1540508,1959655
1361595,1540108,1960101
1361540,1539644,1959359
1361363,1538768,1959923
1361429,1538199,1959375
1360980,1536894,1960172
1360979,1536526,1959387
1360692,1536237,1959401
1360659,1535366,1959692
1360359,1534861,1959762
1360294,1533670,1960195
1360369,1532921,1959301
1360309,1532747,1961224
1360291,1532404,1959307
1360260,1532491,1960303
1360307,1532846,1961935
1360311,1533344,1960980
1359883,1533698,1961109
1359855,1533697,1960703
1359925,1534060,1960393
1359944,1533933,1960402
1359890,1533761,1960449
1359979,1533378,1960325
1359468,1532815,1960363
1359568,1532820,1961613
1359540,1532889,1959635
1359689,1533065,1960020
1360014,1532551,1960507
1359813,1533441,1959266
1359680,1533714,1959401
1359543,1533824,1959927
1359533,1532417,1959127
1359451,1532792,1960434
1359479,1532581,1959888
1359281,1533051,1959828
1359291,1534068,1959256
1359081,1534841,1959708
1359681,1534749,1960726
1359287,1534711,1960126
1359103,1534910,1960183
1359233,1534356,1960225
1359292,1534059,1959991
1359388,1535283,1958152
1359468,1536336,1960605
1359578,1534503,1959838
1359429,1534448,1960814
1359497,1534603,1960597
1359405,1534349,1961841
1359584,1534130,1959857
1359502,1533611,1960405
1358990,1533438,1961079
1359519,1533424,1960208
1359331,1534091,1960251
1359196,1534255,1960313
1358700,1532984,1960202
1358852,1532554,1960966
1358825,1532234,1960757
1358642,1532099,1960403
1358691,1532207,1961663
1358575,1532390,1960760
1358611,1532364,1961241
1358465,1532986,1961550
1358402,1533702,1960367
1358738,1534949,1960607
1358584,1535433,1960848
1358282,1535217,1960902
1358145,1534669,1962003
1358242,1535125,1960873
1358298,1535872,1962762
1358527,1537141,1960720
1358359,1537081,1960691
1358272,1538093,1961097
1358391,1538742,1961918
1358457,1538903,1962747
1358497,1538993,1961972
1358352,1539329,1961932
1358226,1539609,1962825
1358363,1539519,1961344
1358468,1539888,1961278
1357939,1539640,1961630
1358150,1539290,1961976
1358138,1538791,1962044
1358263,1538655,1961638
1358249,1538614,1962300
1358552,1538068,1963026
1358492,1537215,1961780
1358426,1535629,1962604
1358550,1535318,1963621
1358579,1534671,1963233
1358402,1534792,1962858
1358430,1535263,1962338
1358589,1534836,1963209
1358477,1534970,1963654
1358332,1534594,1963973
1358062,1533961,1964261
1357961,1532948,1963696
1357795,1531902,1962791
1357641,1532564,1963581
1357853,1533836,1963031
1357853,1534476,1962803
1357880,1534866,1962296
1357916,1535413,1964645
1358012,1535165,1964946
1357787,1534762,1964321
1357816,1535384,1963524
1357657,1535921,1962838
1357604,1535852,1963634
1357484,1535454,1963662
1357334,1535518,1964380
1357509,1535153,1964486
1357652,1535241,1963639
1357689,1534870,1963462
1357636,1534473,1963229
1357704,1534248,1963197
1357569,1533863,1963027
1357516,1533677,1962700
1357206,1533637,1962520
1357429,1533574,1962188
1357331,1533619,1964190
1357530,1533729,1962140
1357325,1533868,1961073
1357328,1533681,1962168
1357185,1533538,1962213
1357577,1533468,1962127
1357415,1533340,1961934
1357524,1533177,1961632
1357409,1533253,1961601
1357538,1533416,1962513
1357502,1534092,1963123
1357626,1534433,1962717
1357921,1534970,1962443
1357890,1535480,1962710
1357709,1535397,1960846
1357615,1535556,1960794
1357633,1535944,1962024
1357808,1536205,1961856
1357687,1536741,1962708
1357934,1536584,1962310
1357811,1536359,1962075
1357908,1536355,1961957
1357935,1536350,1962774
1357749,1537079,1962342
1357635,1537575,1962313
1357719,1537864,1962002
1357670,1538242,1961311
1357834,1538485,1961806
1358097,1538214,1961841
1358065,1538304,1962004
1358076,1537899,1961703
1358249,1537234,1961512
1358560,1538337,1962074
1358289,1538263,1962125
1358116,1537386,1962059
1358264,1536535,1962366
1357864,1536216,1963026
1357807,1535702,1961424
1357610,1535184,1961773
1357684,1534738,1962861
1357719,1534243,1963788
1357600,1533714,1962251
1357469,1533582,1963223
1357335,1533079,1961949
1356974,1532995,1963241
1357141,1532929,1962505
1357583,1534142,1963088
1357391,1535334,1962500
1357070,1534872,1961903
1357191,1534319,1961841
1357215,1534311,1962362
1357472,1534184,1963748
1357078,1534581,1963404
1357035,1535132,1962177
1357267,1535269,1963113
1356554,1535141,1963103
1356858,1534390,1963313
1356862,1535221,1963778
1357579,1536207,1962796
1357302,1536376,1963082
1357154,1536141,1962853
1357191,1536388,1963374
1357430,1536696,1963284
1357428,1537255,1963201
1357256,1538902,1962808
1356980,1539223,1963324
1357151,1540070,1964412
1357544,1540252,1963302
1357329,1540801,1963373
1357091,1540036,1963186
1357415,1540177,1964892
1357919,1542719,1966117
1357972,1544389,1965109
1357987,1546220,1964816
1358161,1547491,1963697
1358194,1548115,1963882
1358136,1548593,1963131
1357950,1549043,1964765
1357809,1548972,1963377
1358453,1549842,1962624
1358160,1550701,1963161
1358520,1552180,1962853
1358346,1552820,1963812
1358667,1552638,1962257
1358711,1552435,1961843
1358286,1550567,1963410
1358527,1550539,1964367
1358879,1550478,1964065
1358745,1550589,1964118
1358614,1550928,1963083
1358440,1551042,1962593
1358496,1551095,1962914
1358511,1551087,1962479
1358497,1551277,1961690
1358828,1552292,1962421
1358610,1552219,1962884
1358839,1550781,1964317
1358829,1549225,1961569
1358534,1548286,1962683
1358641,1548303,1961688
1358713,1547464,1961989
1358601,1546870,1961700
1358674,1546614,1962744
1359015,1546742,1962167
1358821,1547077,1962054
1358867,1547893,1962060
1358959,1546515,1963036
1359206,1546125,1961745
1359189,1546027,1963372
1358923,1546947,1962260
1359194,1547002,1961270
1359225,1546600,1962837
1359376,1546676,1962212
1359108,1546496,1962171
1359231,1546710,1963685
1359327,1545632,1961760
1359273,1545578,1961948
1359533,1545357,1961117
1359457,1544898,1960761
1359642,1544494,1961762
1359630,1544118,1961556
1359347,1544241,1961591
1359530,1544702,1962159
1359641,1544381,1964513
1359254,1544216,1961923
1359391,1544484,1962373
1359044,1544526,1961370
1358944,1544056,1962437
1359063,1543579,1962752
1359154,1543780,1962562
1358883,1543697,1962086
1359093,1543098,1963566
1358861,1542992,1962278
1358942,1543085,1962688
1358908,1543284,1961499
1358974,1543127,1962302
1359218,1542741,1962603
1359220,1542888,1963238
1359206,1543573,1964036
1359115,1543136,1961696
1359028,1542713,1962740
1359111,1542748,1962468
1359241,1542809,1962283
1358916,1542616,1961898
1358829,1542493,1962915
1358831,1542260,1963290
1358896,1542136,1963324
1359151,1542089,1963158
1359138,1542241,1964365
1358985,1541801,1962701
1358708,1541871,1962852
1358888,1541803,1964225
1359000,1541535,1964458
1359049,1541353,1964337
1358858,1541395,1965122
1359188,1540963,1963695
1359053,1540965,1963320
1358948,1540823,1964396
1358854,1540899,1966482
1358707,1540974,1965626
1358707,1540575,1965641
1358782,1540647,1966766
1359009,1540886,1967786
1358926,1541140,1966508
1359079,1541646,1965887
1359027,1542122,1966353
1359100,1542751,1965474
1359490,1543281,1963981
1359149,1543119,1965608
1359142,1542732,1964892
1359025,1543000,1965337
1359071,1542894,1965303
1358967,1542834,1963969
1358961,1543213,1964517
1359149,1542564,1964229
1359494,1543010,1964563
1359653,1543137,1965307
1359430,1543031,1964844
1359651,1543059,1964783
1359664,1543376,1964450
1359523,1543350,1964597
1359705,1543434,1966438
1359275,1542644,1964861
1359275,1542207,1964774
1359272,1542234,1965103
1359563,1542344,1964864
1359558,1542313,1964864
1359194,1541990,1964254
1359214,1541362,1965250
1359716,1541607,1965120
1359479,1541773,1966248
1359473,1541342,1965229
1359390,1539552,1966271
1359271,1537904,1965557
1359477,1537843,1966011
1359301,1537598,1965426
1358925,1538813,1965491
1359094,1539135,1966678
1358920,1539187,1965734
1358838,1539378,1965700
1358895,1539888,1966360
1358644,1540163,1966533
1358771,1540397,1966379
1358629,1540506,1967157
1358464,1541492,1967514
1358676,1542469,1965921
1358864,1541475,1966479
1358637,1538721,1966325
1358312,1537766,1965801
1358851,1538026,1966500
1358582,1537818,1966500
1358580,1537450,1967433
1358528,1537128,1967133
1358768,1537323,1967159
1358897,1536487,1966919
1358650,1536392,1967244
1358643,1536502,1966952
1358724,1536748,1967549
1359145,1537143,1967603
1358946,1537174,1967073
1358940,1536593,1967875
1358958,1536853,1967573
1358761,1536699,1968074
1358710,1536633,1968333
1358763,1534631,1967896
1358698,1533416,1967582
1358817,1532305,1968238
1358824,1531223,1968179
1358634,1530085,1967171
1358886,1527940,1967766
1358673,1526358,1968891
1359128,1525156,1968861
1359105,1524930,1968899
1358885,1524615,1969845
1358789,1525135,1968481
1358890,1525214,1968251
1359035,1525281,1968782
1358801,1525759,1968094
1358770,1525571,1969109
1358468,1525639,1969629
1358703,1524324,1968720
1358692,1524682,1969440
1358397,1525547,1969896
1358538,1526654,1969717
1358289,1527802,1969443
1358186,1527867,1968972
1358397,1528131,1969469
1358573,1528435,1970381
1358204,1529675,1970755
1358096,1530528,1971484
1358457,1530853,1970773
1358279,1530574,1969486
1358168,1530821,1969412
1358183,1530175,1970471
1358006,1529005,1970972
1357915,1528728,1969017
1357976,1527901,1969713
1358140,1528177,1969162
1358151,1527662,1969554
1358411,1527527,1968169
1358138,1527679,1968990
1358199,1527199,1969429
1357896,1526883,1969128
1357829,1527054,1968872
1357894,1526816,1969087
1357976,1526659,1968686
1358069,1527140,1970477
1358031,1529291,1969885
1357929,1528973,1968759
1357869,1528541,1969076
1357730,1527865,1968946
1357930,1527851,1970210
1358041,1527414,1970245
1357951,1526019,1969468
1357776,1525936,1969863
1357794,1525106,1969590
1357845,1525534,1969873
1357734,1525862,1971680
1357572,1526369,1970109
1357779,1526552,1970167
1357370,1527819,1969717
1357501,1528379,1969488
1357422,1528269,1970587
1357400,1528443,1970317
1356966,1528505,1969617
1357063,1528563,1970356
1357136,1528475,1970162
1357012,1528293,1970850
1357266,1527898,1971559
1357040,1527461,1970675
1356911,1526945,1970711
1356967,1526996,1970733
1356864,1526574,1970276
1356988,1525897,1971531
1357128,1525715,1970647
1356972,1524664,1971173
1357273,1524596,1969803
1357221,1524781,1971931
1356805,1525131,1970972
1356911,1525670,1970890
1356560,1525765,1971754
1356560,1525972,1970872
1356575,1526030,1972243
1356739,1525482,1971806
1356552,1525195,1971416
1356500,1524168,1971330
1356581,1523677,1972400
1356433,1523636,1971890
1356403,1523299,1971874
1356337,1523858,1971634
1356670,1523645,1971097
1356357,1524212,1971153
1356389,1524241,1972757
1356099,1523672,1972239
1356425,1523783,1972945
1356510,1523614,1972071
1356527,1523819,1973259
1356497,1523852,1972576
1356527,1523809,1971924
1356402,1523606,1972737
1356097,1523656,1974569
1356490,1523760,1973303
1356426,1523644,1973558
1356146,1524010,1973087
1356146,1524003,1972192
1356360,1523476,1974199
1356144,1523011,1974802
1356265,1522867,1973418
1356193,1522205,1972646
1356174,1522094,1973109
1356012,1522011,1973240
1356084,1521495,1973873
1356021,1521801,1975196
1355828,1521493,1974101
1356138,1521130,1974617
1355919,1520120,1974100
1356000,1520087,1973709
1356012,1519794,1974382
1355976,1519165,1974622
1356237,1518734,1973484
1356215,1518176,1973726
1356260,1517215,1973268
1356318,1516880,1972367
1356153,1516886,1974743
1356231,1516810,1973390
1356103,1516728,1971714
1356103,1516512,1973617
1355847,1516401,1973739
1355787,1516115,1973491
1355833,1515707,1974447
1355903,1515597,1974433
1355957,1515365,1974588
1355603,1515416,1974395
1355819,1515499,1974173
1355921,1515281,1973782
1356060,1515191,1974694
1355839,1515174,1974694
1355608,1514536,1974477
1355392,1513884,1974015
1355370,1513658,1974347
1355522,1513794,1975920
1355564,1513826,1974591
1355376,1512996,1975489
1355441,1513239,1975129
1355389,1513039,1976192
1355170,1513422,1974525
1355421,1512716,1974669
1355119,1512630,1974942
1354745,1511977,1975320
1354745,1512185,1975777
1354919,1512315,1975761
1354578,1511693,1975914
1354874,1511621,1976862
1354831,1511306,1976366
1354864,1510592,1976117
1354466,1512149,1974954
1354574,1512820,1976302
1354523,1512786,1974860
1354622,1513035,1976475
1354550,1513677,1976715
1354381,1513047,1976535
1354463,1513718,1976794
1354379,1515493,1976295
1354328,1516243,1976517
1354340,1516751,1975644
1354471,1517153,1976063
1354148,1517549,1978215
1354125,1518846,1976859
1353871,1519382,1975539
1354220,1520170,1977814
1354255,1521382,1977652
1354460,1525635,1977312
1354582,1529744,1977675
1354940,1532425,1977401
1355007,1533109,1978008
1354723,1534373,1978235
1354909,1535092,1979133
1355138,1535289,1978437
1355075,1535990,1977317
1354951,1536179,1977498
1354833,1536156,1977743
1354895,1533840,1978275
1354902,1528475,1978985
1354941,1524288,1978098
1354718,1521017,1977822
1354663,1516983,1978748
1354212,1514137,1979293
1354646,1513812,1979732
1354657,1513365,1978610
1354526,1514213,1978714
1354282,1515119,1977912
1354163,1516489,1979647
1354244,1518088,1978794
1354018,1519808,1979655
1354162,1521431,1980700
1354329,1525853,1979854
1354014,1526404,1979551
1354101,1524077,1979275
1354088,1522261,1980768
1354111,1522115,1979481
1354041,1521724,1978595
1354077,1521654,1979610
1354135,1521368,1980089
1353894,1521525,1979495
1353800,1521776,1979016
1353680,1521774,1978943
1353746,1522214,1978106
1353800,1522943,1979050
1353832,1522842,1979554
1353685,1521164,1978620
1353536,1520121,1979367
1353544,1519741,1978612
1353473,1519917,1980037
1353524,1520095,1979469
1353541,1519369,1979001
1353528,1519105,1979486
1353629,1518798,1979273
1353497,1518589,1978652
1353456,1517313,1978445
1353120,1516161,1977717
1353114,1515482,1979901
1353078,1515111,1979423
1353128,1514319,1979105
1353133,1514013,1980896
1352823,1512868,1981271
1352970,1510942,1979561
1352442,1510367,1980471
1352495,1510310,1978472
1352704,1510423,1980807
1352973,1510312,1980973
1352550,1510785,1980098
1352387,1511184,1979883
1352484,1512186,1980024
1352426,1512908,1981438
1352556,1513671,1980118
1352510,1513853,1980045
1352432,1514748,1980215
1352865,1514827,1980391
1352477,1515631,1980638
1352198,1516017,1981042
1352012,1515564,1981200
1351849,1514450,1980125
1352068,1514770,1981325
1352121,1514825,1980602
1352067,1515276,1979819
1352177,1515826,1981383
1351781,1516995,1981916
1351603,1517655,1981208
1352209,1518509,1980569
1351951,1519571,1980071
1351937,1520729,1981256
1351884,1521169,1979986
1351854,1521511,1980020
1351763,1522181,1979202
1351865,1522848,1980435
1352055,1522540,1980109
1352357,1523578,1980521
1352200,1523675,1979339
1351913,1523299,1980423
1352127,1522754,1981165
1352029,1522140,1981527
1351954,1521497,1981087
1352223,1520925,1980891
1351473,1520109,1980155
1351473,1520084,1980575
1351540,1519852,1981703
1351367,1519650,1981172
1351267,1519523,1981234
1351276,1519188,1980507
1351474,1518865,1980448
1351255,1520113,1980587
1351253,1520771,1981975
1351297,1522339,1980311
1351405,1523929,1980927
1351563,1525685,1980456
1351681,1527324,1981149
1352142,1528897,1980932
1351610,1530100,1980566
1351739,1531214,1980412
1351777,1532186,1980895
1351971,1533055,1982170
1351876,1533196,1982626
1351809,1532902,1980260
1352071,1533293,1981633
1352030,1533352,1981602
1352274,1533351,1981255
1352189,1532949,1981107
1352336,1532771,1982786
1352507,1532286,1982414
1352235,1531541,1981405
1351699,1531267,1981419
1352046,1530604,1980906
1352123,1530549,1980493
1352058,1530366,1981517
1352242,1530120,1980673
1352433,1528335,1980473
1352304,1527173,1980180
1352740,1526740,1980201
1352599,1524450,1980770
1352380,1524510,1981138
1352439,1524939,1982089
1352257,1524933,1982667
1352627,1524313,1981628
1352321,1524888,1981573
1352013,1524972,1981727
1352280,1524589,1981796
1351806,1524336,1982182
1351968,1524490,1981659
1352086,1524000,1982204
1351806,1523900,1982483
1352050,1523679,1983076
1352224,1523248,1983317
1352013,1521765,1982379
1351893,1521505,1982484
1352045,1522314,1983527
1351963,1522662,1982321
1351875,1523179,1982752
1351978,1524217,1982820
1351707,1524462,1980997
1351730,1524213,1981960
1351803,1524456,1982364
1351743,1525463,1984378
1352050,1527144,1984823
1351669,1529516,1982841
1352303,1531425,1982964
1352108,1531478,1982400
1352255,1531076,1982324
1352194,1531321,1982885
1352247,1531479,1983904
1352335,1531362,1984368
1352190,1530889,1982999
1351858,1530535,1982637
1352135,1530528,1985342
1352271,1530610,1984803
1352239,1531064,1982113
1352509,1532254,1984173
1352377,1532400,1984119
1352918,1533738,1983960
1352635,1534824,1984318
1352865,1534230,1983187
1353141,1534830,1983812
1353213,1534684,1984020
1353092,1534800,1984303
1353101,1535018,1984221
1352876,1534854,1983879
1352628,1535284,1984064
1353067,1536491,1985321
1353316,1537575,1983377
1353183,1538902,1983044
1353118,1539739,1984837
1353101,1540345,1985970
1353323,1541884,1986087
1353901,1541994,1984557
1353420,1541022,1983981
1353379,1541587,1984062
1353417,1542511,1984954
1353449,1542608,1984489
1353227,1542989,1984258
1353085,1543245,1983568
1353566,1542938,1984483
1353603,1543539,1984600
1353654,1546068,1985598
1353839,1548252,1984933
1353816,1551823,1985589
1354217,1554095,1984139
1353760,1555064,1985621
1354399,1555148,1986770
1354263,1555259,1986873
1354368,1554966,1985667
1354825,1554815,1985206
1354116,1553971,1984287
1353807,1552964,1984666
1354051,1551921,1984636
1354156,1551300,1986221
1353860,1550497,1983485
1354179,1549881,1984041
1354510,1549341,1984461
1354377,1548236,1983572
1354734,1547689,1984067
1354738,1546844,1982916
1354541,1545458,1983893
1354971,1546608,1983527
1354968,1546804,1983901
1354785,1547076,1985550
1354596,1546893,1984553
1354590,1546480,1985748
1354916,1545290,1984122
1355538,1544675,1985521
1354982,1543895,1983645
1354873,1542548,1983382
1354782,1541326,1985087
1354746,1541108,1983591
1354848,1540240,1982701
1355035,1539490,1982906
1355034,1538277,1983523
1355127,1538111,1984852
1354957,1537492,1984993
1355125,1537335,1985541
1355189,1536619,1984217
1355019,1536182,1985418
1354759,1535401,1983929
1354759,1534781,1984297
1355282,1534351,1984456
1354936,1534017,1982250
1354765,1533787,1983416
1354785,1533032,1983262
1354750,1532369,1983825
1354463,1531264,1984249
1354489,1531420,1984861
1354491,1531055,1984061
1354262,1530591,1984114
1354182,1530375,1983464
1354247,1529868,1983826
1354291,1529638,1984233
1354633,1529989,1983840
1354384,1529445,1984582
1354617,1529473,1984399
1354483,1529240,1984375
1354496,1528939,1985297
1354384,1528728,1984036
1354292,1528609,1985891
1354640,1527761,1984960
1354299,1528447,1987198
1354111,1528395,1987088
1354111,1528706,1986306
1354162,1528498,1984815
1354160,1528598,1984815
1354191,1528479,1986004
1354247,1528106,1984921
1354247,1528166,1984882
1354194,1528368,1986493
1354086,1528497,1985221
1353926,1528285,1986154
1354141,1529189,1986251
1353929,1530057,1986668
1354347,1529014,1985089
1353972,1528701,1985904
1354026,1528915,1986106
1354273,1528998,1986715
1354493,1528724,1986477
1353950,1528847,1985788
1353909,1529194,1986257
1354222,1529649,1987515
1354073,1530034,1986165
1354236,1530008,1986818
1354209,1530422,1986174
1354342,1530224,1985731
1354031,1530202,1985233
1354316,1530645,1985893
1354102,1530782,1985366
1354602,1530772,1986228
1354396,1530332,1984817
1354372,1530134,1985417
1354628,1530073,1985635
1354520,1530017,1985337
1354171,1530359,1985123
1354256,1530417,1984511
1354038,1530945,1984895
1354038,1531114,1984409
1354015,1531201,1984785
1354267,1531791,1985051
1354257,1531945,1985534
1354233,1531812,1984958
1354297,1531479,1985003
1354443,1531616,1983752
1354353,1531313,1984066
1354217,1531099,1983836
1354551,1531197,1982885
1354235,1530694,1982126
1354093,1530838,1982878
1354160,1529186,1983857
1354087,1529112,1984440
1354009,1529161,1984075
1353992,1528505,1984095
1353932,1528254,1984518
1353648,1527800,1983933
1353435,1527900,1984373
1353732,1528009,1984343
1353476,1527841,1984554
1353308,1528329,1983572
1353284,1528038,1984746
1353318,1529164,1983679
1353460,1529870,1983384
1353586,1531186,1983220
1353577,1531931,1983481
1353439,1531634,1982758
1353176,1531435,1984247
1353153,1531249,1984827
1352894,1531277,1984270
1353110,1531134,1983318
1352828,1531030,1983020
1352921,1530443,1982480
1352825,1528924,1982950
1352774,1528274,1983586
1352976,1529074,1983218
1353058,1527872,1982685
1352962,1527560,1981693
1353094,1528041,1982653
1352851,1528334,1983261
1352932,1528258,1981821
1352829,1528575,1981060
1352650,1528934,1981972
1352404,1529058,1981809
1352863,1529469,1983294
1352562,1529809,1982939
1352789,1531124,1983629
1352820,1531316,1982966
1353232,1531608,1982531
1353030,1531412,1981703
1353347,1529245,1981376
1353331,1529269,1982242
1353324,1528464,1980287
1353339,1527903,1980003
1352996,1527051,1981851
1352181,1526557,1980174
1352652,1526284,1980469
1352826,1526135,1978877
1352757,1525720,1979432
1352795,1525614,1979582
1352655,1527482,1978987
1352777,1532095,1979174
1352655,1536032,1979477
1352571,1537549,1979561
1352698,1538269,1979350
1352791,1538331,1980071
1352889,1538314,1978992
1352624,1538486,1979842
1352712,1538346,1980606
1352673,1537754,1980452
1352867,1537789,1980620
1352685,1538265,1979140
1352675,1538445,1980093
1352109,1538225,1981390
1352510,1538598,1979817
1352659,1538037,1979246
1352605,1538297,1980128
1352977,1537646,1980001
1352697,1536668,1980138
1352877,1536697,1979908
1353050,1536445,1979639
1352412,1536333,1979025
1352912,1536578,1980586
1352808,1536844,1980057
1352601,1537065,1980498
1352676,1537248,1980551
1352802,1537049,1980917
1352807,1537405,1979033
1352729,1537612,1980432
1352920,1537901,1980560
1352823,1537474,1981232
1352872,1537541,1981094
1352665,1537458,1979711
1352897,1538683,1979465
1353079,1539551,1980180
1353060,1539909,1980794
1353453,1540417,1979623
1353216,1541573,1980578
1353305,1541717,1979267
1353294,1542829,1979992
1353108,1544011,1979824
1353108,1545147,1979379
1353134,1545890,1978813
1353245,1546944,1979107
1353451,1547846,1979971
1353410,1547642,1978951
1353509,1547739,1980223
1353659,1549074,1978902
1353672,1550046,1978903
1353772,1550653,1979790
1353899,1551105,1979977
1354024,1551894,1979461
1354020,1552056,1979491
1353882,1552492,1979462
1354034,1553312,1979462
1354088,1553824,1979987
1354410,1554351,1981403
1354305,1554184,1979655
1354396,1553924,1981082
1354395,1553862,1981224
1354452,1554096,1981547
1354638,1554241,1979432
1354435,1554206,1979396
1354435,1554503,1979790
1354383,1555291,1979559
1354573,1556392,1979429
1354616,1557607,1980414
1354835,1558147,1981259
1354649,1558435,1981924
1354754,1558964,1980928
1354578,1559488,1980538
1354621,1559882,1979858
1354869,1560214,1980222
1354748,1560713,1979195
1354841,1561414,1980669
1354949,1561546,1979498
1354683,1561961,1980316
1354652,1562338,1979870
1354938,1562383,1979702
1355205,1562352,1981149
1355075,1562214,1980471
1355115,1561960,1981625
1355093,1562281,1981150
1355151,1562508,1980981
1355247,1562062,1982067
1354763,1561843,1981580
1354728,1561241,1981319
1354728,1561175,1982142
1354966,1561294,1981551
1354998,1561672,1980851
1354862,1561488,1981568
1355086,1561033,1981254
1354645,1560192,1980474
1355032,1560632,1982430
1355116,1561219,1982331
1355211,1561094,1979881
1355226,1561172,1982406
1355332,1561669,1982448
1355329,1561515,1981058
1355202,1560939,1981743
1355242,1560015,1980700
1355383,1559830,1980685
1355761,1559580,1983176
1355742,1559695,1982088
1355590,1559571,1981600
1355662,1559564,1981490
1355437,1560014,1982330
1355832,1560753,1981520
1355721,1561400,1981327
1356071,1562010,1980877
1355895,1561909,1981438
1356037,1560935,1981585
1356186,1561219,1980949
1356186,1563292,1979640
1356441,1565027,1981441
1356706,1566571,1979791
1356613,1568937,1981192
1356525,1570147,1980010
1356559,1571757,1981375
1356751,1572311,1981327
1356597,1572552,1979691
1356583,1572508,1981264
1356486,1571995,1979996
1356701,1569811,1980792
1356357,1567595,1979430
1356638,1565047,1979788
1356455,1564173,1980644
1356258,1563156,1980795
1356507,1562727,1980303
1356599,1562174,1979746
1356261,1561725,1978648
1356143,1561126,1980407
1356203,1560663,1979877
1356331,1560574,1980951
1356860,1560832,1980114
1356434,1560019,1980646
1356073,1557553,1980048
1356072,1552599,1980022
1356079,1549862,1980326
1356268,1549960,1981673
1356608,1550061,1978858
1356249,1551057,1979417
1356084,1551409,1979737
1356178,1551538,1979577
1356113,1551559,1980156
1356012,1552194,1979480
1356150,1555677,1979489
1356730,1558554,1978919
1356411,1559038,1981065
1356575,1558290,1979727
1356656,1559208,1980334
1356834,1559748,1979526
1356591,1560715,1980664
1356860,1561795,1980281
1356611,1562716,1980809
1356876,1563114,1981026
1356707,1562729,1981353
1356714,1562477,1979379
1356699,1561742,1981362
1356822,1561193,1981000
1357250,1562003,1980489
1357635,1561752,1980702
1356752,1562094,1980395
1357011,1562788,1980826
1357062,1563865,1981041
1357115,1565225,1981248
1357016,1566921,1981385
1356594,1567313,1980320
1356895,1567367,1980675
1356784,1567447,1981105
1356774,1567713,1979781
1356670,1567152,1979966
1356909,1565025,1980621
1357064,1565810,1980896
1356771,1565554,1981121
1357001,1565522,1980726
1357140,1565431,1979234
1356960,1564814,1980811
1356704,1564631,1980914
1356566,1564479,1980711
1356663,1563821,1980568
1356662,1563683,1980516
1356615,1563508,1981469
1356677,1563847,1981132
1356817,1563703,1980735
1356638,1563533,1980376
1356588,1563689,1981054
1356696,1563842,1980998
1356728,1563840,1982663
1356947,1563678,1981824
1356854,1563813,1982043
1356883,1563562,1981184
1356693,1563627,1981413
1356951,1563457,1980462
1356971,1563622,1981509
1356956,1563987,1980166
1356956,1563740,1982077
1356741,1563702,1981864
1356846,1563553,1982256
1356746,1563988,1981906
1356909,1564042,1981268
1357127,1563639,1980312
1357069,1563868,1981147
1356849,1564370,1981172
1356998,1564887,1979848
1356997,1565081,1980708
1357220,1565332,1981985
1357071,1565046,1980662
1356916,1564251,1980165
1357108,1564212,1979833
1357122,1563888,1980117
1357322,1563499,1980315
1357387,1563417,1981100
1357362,1563560,1979642
1357422,1563718,1979870
1357392,1564451,1980918
1357596,1565033,1981024
1357461,1565430,1981788
1357197,1565488,1981767
1357197,1565753,1980486
1357385,1565409,1980498
1357403,1564990,1980302
1357243,1564419,1981770
1357297,1564193,1980926
1357346,1564003,1981847
1357459,1564389,1981814
1357288,1564918,1980074
1357531,1564760,1982092
1357595,1564799,1981072
1357559,1564813,1980959
1357506,1564991,1981254
1357468,1565471,1981632
1357392,1566218,1981362
1357703,1566661,1981167
1357775,1567202,1981247
1357438,1567269,1981402
1357479,1566591,1982566
1357432,1565981,1981443
1357166,1565423,1980820
1357253,1564887,1981293
1357040,1564102,1982773
1357040,1563357,1983733
1357067,1563054,1982894
1357199,1562417,1982431
1356911,1561994,1983363
1356835,1562074,1982699
1356868,1562182,1981945
1357136,1563474,1982391
1357049,1563553,1983035
1356993,1565143,1982001
1356946,1567248,1982440
1357126,1570223,1983783
1357369,1572165,1982952
1357398,1573983,1983841
1357607,1574540,1984558
1357714,1574177,1984327
1357589,1573875,1984172
1357477,1572995,1982033
1356952,1572617,1983034
1357535,1571124,1983288
1357392,1570796,1982577
1357647,1571783,1983527
1357473,1572706,1983570
1358095,1573663,1984024
1358049,1576141,1984658
1358010,1578649,1984025
1358516,1580206,1983461
1358612,1580691,1984803
1358366,1581926,1985089
1358583,1583065,1983571
1358737,1583528,1983818
1358656,1584448,1983608
1358831,1584659,1984059
1358633,1585299,1984519
1359119,1585062,1985755
1358803,1587756,1985902
1359699,1590693,1983649
1360112,1591956,1983983
1359702,1592523,1984837
1360231,1593526,1984313
1360499,1593648,1984434
1360162,1594928,1985120
1360708,1595498,1984301
1360547,1595316,1984312
1361229,1596351,1984259
1360700,1596854,1985140
1360592,1597387,1984472
1360915,1596356,1985322
1361026,1595039,1984347
1360965,1594795,1983777
1361703,1593964,1984927
1361537,1593763,1985320
1360977,1593274,1984728
1361029,1593417,1984669
1360913,1592860,1983937
1360945,1592497,1986038
1361046,1591412,1983934
1361074,1590762,1986247
1361271,1589106,1984880
1361318,1587731,1985502
1361243,1586179,1985080
1361578,1585047,1985401
1361516,1585163,1985625
1361392,1584389,1984230
1361535,1583663,1985110
1361549,1583348,1986326
1361409,1582946,1985709
1361662,1582489,1985090
1361482,1581682,1986226
1361459,1581168,1984271
1361444,1580908,1985137
1361530,1580224,1983746
1361534,1579626,1985376
1361338,1579185,1984844
1361436,1578107,1985479
1361806,1578192,1984846
1362029,1577663,1985705
1361893,1577250,1984807
1361896,1576131,1984342
1361992,1575944,1986290
1361923,1575288,1985529
1361900,1574950,1983813
1361607,1574635,1985353
1361607,1574123,1985131
1361713,1573192,1985462
1361590,1572710,1985825
1361892,1572047,1984805
1361791,1571777,1986504
1361610,1571563,1985595
1361539,1571518,1985717
1362102,1570596,1985582
1361996,1570549,1985448
1362066,1570067,1986019
1361858,1568879,1985815
1362222,1568001,1984737
1362185,1566704,1986306
1362112,1565713,1986164
1362433,1565882,1986763
1362311,1566018,1986818
1362290,1566156,1986759
1362177,1566707,1985061
1362011,1566921,1986788
1361774,1566793,1986188
1361999,1566429,1986349
1362063,1566126,1986052
1361933,1565840,1986890
1361913,1565327,1985808
1361824,1565065,1986251
1361859,1565207,1986896
1361929,1565183,1986599
1362074,1565490,1986528
1362152,1565229,1986372
1362100,1565195,1987196
1362333,1565369,1987257
1362302,1565758,1987008
1362428,1566062,1987385
1362207,1566432,1987116
1362414,1566179,1987603
1362257,1565681,1988460
1362360,1565370,1987208
1362341,1565405,1987069
1362391,1565437,1986849
1362187,1565849,1985506
1362175,1565872,1986285
1362057,1565860,1986504
1362284,1565686,1985563
1362201,1565772,1985239
1362173,1565242,1984829
1362083,1564592,1985326
1362095,1564266,1985549
1361931,1564048,1985201
1362385,1563866,1984859
1362266,1563720,1984888
1362235,1563404,1985351
1362217,1562998,1985167
1362203,1562956,1985964
1362249,1563217,1985230
1362369,1563510,1985160
1362154,1563864,1984240
1362154,1563564,1985115
1362131,1563649,1984680
1362125,1563517,1984702
1362259,1563271,1984765
1362089,1563249,1986018
1362401,1562785,1986117
1362290,1563124,1985401
1362325,1563352,1985172
1362333,1563563,1985358
1362553,1564012,1985575
1362627,1564213,1984404
1362627,1563931,1984309
1362322,1564370,1984723
1362667,1565156,1984782
1362662,1563651,1985221
1363016,1563168,1984814
1362898,1563534,1985867
1363071,1563733,1984630
1362947,1564229,1984893
1363166,1564295,1986456
1363016,1564651,1986221
1362950,1564701,1985403
1363014,1563942,1984432
1363011,1564078,1984369
1363181,1564025,1984294
1362976,1563187,1984486
1363103,1563890,1984800
1363306,1563311,1985491
1363156,1563667,1984920
1363175,1562631,1985294
1363330,1563537,1985006
1363364,1563069,1985575
1363288,1563112,1984905
1363121,1563260,1984565
1362987,1563395,1985993
1362921,1563318,1985677
1362973,1562487,1985218
1362942,1562218,1986957
1363067,1560904,1985656
1362887,1560303,1984915
1363118,1559090,1984264
1362931,1558297,1985182
1363128,1557918,1986596
1362796,1558287,1985917
1362994,1557741,1985174
1362959,1557541,1984368
1363020,1557174,1984459
1362378,1556973,1985085
1362723,1556656,1985983
1362458,1556272,1985661
1362873,1555624,1985638
1362721,1555136,1986151
1362801,1554890,1986590
1362706,1555178,1986369
1362669,1555375,1986201
1362633,1555174,1987488
1363015,1554717,1986680
1362720,1554732,1986158
1363043,1553712,1987503
1362581,1553630,1987468
1362113,1554177,1987290
1362711,1553706,1985113
1362709,1554001,1986288
1362615,1553523,1986591
1363002,1553131,1986690
1362983,1553732,1986805
1362452,1553826,1987264
1362645,1553355,1986557
1362756,1553630,1987216
1363408,1553012,1986665
1362804,1552802,1987582
1362693,1551327,1987323
1362775,1550634,1986747
1363161,1551229,1987365
1362966,1551961,1987198
1362862,1552479,1986731
1363082,1552852,1987018
1363030,1552949,1986296
1362940,1553551,1986653
1363160,1554231,1987342
1362786,1554954,1987855
1362628,1555785,1986956
1362621,1556024,1986473
1362965,1556151,1986404
1362805,1556870,1987107
1362985,1557396,1986663
1362721,1558510,1985956
1362858,1559737,1986304
1362733,1561690,1986801
1363255,1563212,1988277
1362957,1563968,1986746
1363384,1564368,1986417
1363506,1564992,1986646
1363607,1565215,1986938
1363403,1565723,1987674
1363248,1565562,1986148
1363314,1565661,1985636
1363349,1565668,1987703
1363174,1566345,1987832
1363136,1566755,1987378
1363496,1567461,1988091
1363272,1566939,1986904
1363502,1566123,1986389
1363379,1565134,1987954
1363361,1564904,1987367
1363544,1565645,1987563
1363785,1565523,1987202
1363482,1565765,1986448
1363634,1565723,1987850
1363377,1565566,1987710
1363254,1565942,1986694
1363236,1565878,1986358
1363219,1565701,1987301
1363240,1565490,1985445
1363256,1565633,1986695
1363463,1565215,1987591
1363541,1565201,1988308
1363441,1564702,1986340
1363390,1564240,1988151
1363607,1564305,1987255
1363608,1564714,1987629
1363953,1564960,1987335
1363602,1565279,1986990
1363602,1564672,1985867
1363459,1564547,1986970
1363612,1564068,1987856
1363777,1564381,1986385
1363684,1563797,1987791
1363759,1563439,1986440
1363589,1563486,1988919
1364029,1562940,1988284
1363777,1563651,1987576
1364046,1563616,1987328
1364090,1564216,1988607
1364028,1563993,1988700
1363990,1564034,1987808
1364112,1563897,1987313
1364054,1563478,1987117
1364475,1563399,1987453
1364254,1563034,1988129
1364221,1562282,1986767
1364327,1561922,1988904
1364320,1561487,1989428
1364331,1561147,1988263
1364341,1561404,1986884
1363999,1561350,1987690
1363999,1560868,1987775
1364065,1560913,1989766
1364070,1560424,1989575
1364021,1560042,1990720
1363871,1559500,1990720
1364159,1559412,1989424
1364078,1559145,1989995
1364112,1558992,1989427
1363912,1558862,1989509
1364092,1558562,1990477
1364148,1558349,1989830
1364082,1557806,1989079
1363944,1557998,1989296
1364029,1557819,1988989
1364317,1557871,1990236
1364379,1558175,1989441
1364261,1558361,1988935
1364124,1558354,1990060
1364286,1558918,1990257
1364403,1559271,1990212
1364239,1559614,1991476
1363939,1559541,1989016
1363939,1559206,1987852
1363937,1559351,1988405
1364113,1559758,1989422
1364693,1559868,1989037
1364330,1559856,1989798
1364050,1559702,1989163
1364355,1559911,1988597
1364061,1559782,1989909
1364227,1559482,1989454
1364017,1559314,1989253
1364145,1559485,1989396
1363540,1559047,1989317
1363908,1559510,1988964
1363982,1559609,1989614
1364193,1559395,1989576
1364386,1559165,1988794
1364269,1558747,1989530
1364225,1558715,1988968
1364322,1558063,1989481
1364395,1557740,1990344
1364361,1557441,1989492
1363833,1557211,1990038
1363833,1556518,1989223
1363916,1556902,1989523
1364076,1556420,1989036
1364011,1556738,1989555
1363711,1556165,1989043
1363957,1556053,1988710
1363880,1556211,1988306
1364551,1556283,1988963
1364009,1556214,1989214
1364070,1555840,1988755
1364173,1554948,1989522
1363690,1554728,1987393
1364104,1553935,1988867
1364241,1552731,1988382
1363740,1552339,1988148
1364027,1552733,1987603
1364224,1552144,1987702
1364084,1553281,1987192
1363959,1552991,1987659
1363637,1552731,1987474
1363673,1552586,1988467
1363966,1552503,1988159
1363988,1552526,1987617
1364347,1553001,1987258
1363918,1554329,1987804
1363754,1554740,1988184
1363741,1554996,1988184
1363635,1553622,1989021
1363527,1553045,1987905
1364090,1552068,1987872
1363443,1551316,1987667
1363226,1549621,1987233
1363197,1549511,1987808
1363295,1548641,1988176
1362927,1547578,1988587
1362694,1550148,1986960
1362985,1550846,1988552
1362956,1550976,1988215
1362869,1550935,1988587
1362946,1551114,1987443
1363110,1551585,1987284
1363072,1551392,1987784
1362941,1551711,1988122
1363045,1551716,1987021
1362634,1551533,1987016
1362654,1551056,1986690
1362951,1549921,1987489
1362836,1549686,1987354
1362784,1549219,1986647
1362573,1548633,1986721
1362409,1548341,1986324
1362639,1547560,1986745
1363005,1547656,1987069
1362819,1546811,1986273
1362657,1545566,1985838
1362787,1545500,1985332
1362824,1545629,1986239
1362775,1545807,1986206
1362660,1546171,1985907
1362631,1546231,1985036
1362949,1546416,1984883
1362824,1546947,1984677
1363058,1548747,1984220
1363056,1550595,1985088
1363180,1553415,1985242
1363390,1555546,1985345
1363190,1557542,1985583
1363660,1558377,1984034
1363554,1559387,1984685
1363692,1559777,1984346
1363477,1559766,1984146
1363255,1559616,1983645
1363262,1559239,1983529
1363312,1562424,1983886
1363302,1565089,1984812
1363338,1566161,1985247
1363402,1567191,1985263
1363389,1567988,1984505
1363836,1568787,1984928
1363816,1569590,1984342
1363823,1570539,1982971
1363631,1571215,1983273
1364004,1571645,1985916
1363864,1571333,1983362
1363699,1571856,1983521
1363734,1571507,1983485
1363567,1571441,1983138
1363795,1571405,1984129
1363773,1571413,1984519
1364192,1571748,1983421
1364012,1571988,1982955
1363861,1572138,1984331
1363813,1572476,1985228
1363980,1572550,1982751
1363818,1572829,1983596
1363749,1572583,1983557
1363740,1572508,1984427
1363740,1572517,1984008
1363726,1572933,1984042
1363811,1573583,1984058
1364123,1574050,1983749
1363808,1574483,1983711
1364073,1575256,1983408
1364098,1576223,1983116
1364223,1576507,1983695
1364233,1577028,1982961
1364286,1577053,1982811
1364342,1577203,1983628
1364016,1576776,1984274
1364276,1576919,1983380
1364270,1576942,1984596
1364358,1577133,1983833
1364590,1576867,1983931
1364766,1576803,1984659
1364851,1576470,1984491
1364655,1576623,1982767
1364707,1576409,1983700
1365240,1577058,1983476
1364509,1576497,1983724
1364973,1576905,1983774
1364960,1576315,1983310
1364848,1576734,1982831
1365140,1576314,1983983
1364820,1576567,1983017
1364680,1576368,1983613
1364177,1575948,1982811
1364757,1575888,1982707
1364847,1576060,1983394
1364937,1575730,1982995
1365150,1575130,1982189
1364802,1574563,1982994
1365007,1574302,1982810
1365260,1573547,1982828
1365401,1573618,1982828
1365593,1573163,1982411
1365058,1572609,1982057
1365131,1572452,1983848
1365220,1572565,1981560
1365337,1572672,1980470
1364563,1573122,1981605
1364563,1572629,1980327
1364778,1572167,1982378
1364759,1571681,1981136
1364842,1571989,1981458
1365651,1571432,1980752
1365159,1570850,1981600
1364937,1570867,1980474
1364949,1571177,1982547
1364988,1570981,1982043
1364701,1572033,1981266
1364843,1573399,1982558
1365273,1574189,1982091
1365199,1575254,1982322
1365292,1576598,1981717
1365121,1577300,1982724
1364846,1577471,1982724
1365372,1576945,1981090
1365130,1576839,1980303
1365332,1576080,1979648
1365138,1575425,1980705
1365060,1574855,1980520
1365164,1574930,1980555
1365231,1574991,1981546
1365005,1574679,1982151
1365047,1575357,1980029
1365053,1575014,1981112
1364984,1576536,1981106
1365550,1577121,1981226
1365441,1577931,1981418
1365362,1577355,1981275
1365457,1577395,1980892
1365540,1576343,1982218
1365415,1576843,1982834
1365614,1576489,1982369
1365322,1576109,1981106
1365596,1576786,1983364
1365738,1577293,1980925
1365720,1578820,1980978
1366070,1578407,1980978
1366087,1577743,1980740
1366018,1578260,1980708
1366091,1577607,1979517
1366098,1577551,1980914
1366131,1576948,1980697
1365898,1576740,1980847
1365868,1576595,1980123
1365810,1576106,1981445
1365782,1576144,1979510
1365805,1575886,1981818
1365595,1575500,1981116
1365902,1575556,1980244
1365722,1576282,1979649
1365446,1576862,1979204
1365605,1577874,1979116
1365748,1578533,1980261
1365524,1579851,1980369
1365273,1580337,1980176
1365784,1580303,1980888
1365689,1580732,1981574
1365607,1582554,1980833
1365619,1583810,1980147
1365794,1583912,1980269
1365812,1583241,1979785
1365401,1583651,1980551
1365605,1584215,1979279
1365652,1584288,1981314
1365741,1584253,1979997
1365747,1584857,1980885
1365667,1585332,1979772
1365750,1585457,1979906
1365587,1586295,1979722
1365696,1586693,1980826
1365798,1588011,1981614
1365829,1588097,1981975
1365924,1588800,1979610
1366044,1590022,1980961
1365714,1590785,1980725
1366162,1591383,1981829
1365983,1591905,1980718
1365988,1591651,1981105
1366034,1591755,1981150
1365929,1591557,1980349
1366014,1591142,1981289
1366197,1591118,1980104
1366006,1590959,1980104
1365955,1590004,1979121
1365646,1589021,1978883
1365622,1587901,1979375
1365678,1587736,1980217
1365645,1588056,1978803
1365472,1588128,1978701
1365245,1587917,1978428
1365228,1587560,1978610
1365038,1587389,1979389
1365217,1587520,1978248
1365111,1587828,1978533
1365080,1587557,1978633
1365002,1587700,1977278
1365126,1587627,1976291
1365063,1587653,1976600
1365448,1587676,1975944
1365463,1587410,1975088
1365322,1587158,1975600
1365282,1587310,1975860
1365429,1587458,1975591
1365400,1588428,1975686
1365157,1588988,1973809
1365157,1589748,1974593
1364729,1590191,1973988
1364888,1589880,1975431
1364998,1589738,1974655
1364955,1589323,1974726
1364224,1588499,1973356
1364593,1587913,1973417
1364583,1586907,1974138
1364611,1586994,1974244
1364500,1586908,1973816
1364582,1586476,1974070
1364467,1586627,1974278
1364506,1586611,1973692
1364465,1586888,1971773
1364615,1587128,1971937
1364633,1587204,1972427
1364777,1587481,1971903
1364287,1587496,1970688
1364556,1587561,1972012
1364598,1587863,1972267
1364652,1588075,1973135
1364456,1588191,1972376
1364311,1588169,1972391
1364311,1588135,1972316
1364295,1587725,1973037
1364525,1588461,1972086
1364485,1588939,1972329
1364783,1588987,1972673
1364738,1589079,1972378
1364548,1590211,1972342
1363978,1590510,1973060
1364578,1590661,1973813
1364565,1590961,1973321
1364645,1590997,1974636
1364525,1590781,1973696
1364537,1591040,1974264
1364659,1591738,1973974
1364835,1591958,1974689
1365001,1592574,1974033
1365274,1592759,1973351
1365228,1592877,1973315
1365021,1593387,1974279
1365089,1593799,1972925
1365172,1593794,1972310
1363787,1593507,1973289
1364353,1593286,1972448
1364794,1592747,1971353
1365020,1592832,1972531
1364977,1592872,1973494
1364842,1593118,1974472
1364714,1593250,1973517
1364840,1593270,1972863
1364984,1592131,1973139
1364737,1592175,1973359
1364658,1592346,1972983
1363831,1592051,1974333
1364169,1592217,1972557
1364437,1592469,1972895
1364744,1592869,1973505
1364586,1593472,1974023
1364619,1593840,1973587
1364466,1593699,1973137
1364404,1593486,1972534
1364592,1592713,1972857
1364191,1592991,1974107
1363965,1592947,1974200
1363965,1592733,1971880
1364105,1592096,1972895
1364077,1591352,1973103
1363828,1590996,1972276
1363109,1590469,1971784
1363593,1590079,1971527
1363622,1590060,1972706
1363437,1590006,1972785
1363689,1590283,1971805
1363846,1590437,1970519
1363553,1590458,1970981
1363748,1590060,1971945
1363564,1589369,1973009
1363040,1588733,1972606
1363465,1589074,1972468
1363713,1588897,1971833
1363269,1589011,1972039
1363439,1589571,1971356
1363321,1589757,1971619
1363293,1590392,1970914
1363212,1590973,1970233
1363098,1591204,1970705
1363286,1591840,1971387
1363291,1591815,1972535
1363523,1591803,1971350
1363475,1593086,1971616
1363359,1593358,1971613
1363612,1593133,1972074
1363483,1593356,1970901
1363378,1594223,1971243
1363410,1594759,1971461
1363373,1595083,1970798
1363427,1595477,1971540
1363238,1595772,1971953
1363628,1596934,1972925
1363664,1598252,1972326
1363830,1598237,1971654
1363394,1597335,1971990
1363418,1596220,1972435
1363245,1596345,1973428
1363272,1595007,1971512
1362708,1593920,1971056
1362690,1594149,1971566
1362829,1593574,1972013
1362662,1593675,1973343
1362420,1592746,1972934
1362439,1591938,1971729
1362237,1590739,1970559
1362379,1589779,1970816
1361881,1589867,1971071
1361954,1589448,1971398
1361941,1589573,1971562
1362131,1589346,1971615
1361784,1589842,1970731
1361829,1589742,1970767
1361955,1589650,1970642
1361509,1589671,1972859
1361612,1589723,1972505
1361319,1589565,1972690
1361500,1588614,1972602
1361557,1588505,1973848
1361519,1587825,1972851
1361316,1587245,1972858
1361501,1587344,1970757
1361521,1587091,1971681
1361414,1587019,1972716
1361495,1587054,1973307
1361378,1589172,1972630
1361387,1590182,1972196
1361450,1591834,1972801
1361574,1592996,1971894
1361444,1593873,1973262
1361524,1594137,1972391
1361262,1592400,1972165
1361715,1591046,1971606
1361524,1589487,1971273
1361070,1587855,1970548
1360954,1588196,1971293
1360992,1587200,1970646
1361179,1587467,1971150
1360833,1587484,1970890
1359992,1587064,1972405
1360213,1586285,1972507
1360639,1584721,1972022
1360725,1584328,1972432
1360136,1583648,1973911
1359772,1583216,1973194
1359825,1582266,1972707
1359725,1581690,1973472
1359798,1581059,1972920
1360036,1580513,1973292
1359921,1578984,1972317
1359728,1579188,1972051
1359635,1579134,1972279
1359602,1578764,1972047
1359324,1578127,1972050
1359409,1578870,1972056
1359179,1578285,1970534
1359129,1578596,1970467
1358866,1578867,1969297
1358883,1578840,1969117
1358849,1577407,1971080
1358906,1577972,1969853
1358800,1578055,1968467
1358636,1578236,1969691
1358573,1578047,1969138
1358507,1578184,1969888
1358508,1578359,1969888
1359364,1578084,1968796
1358906,1577829,1969433
1358839,1577500,1968511
1358672,1576921,1969085
1358288,1576952,1968852
1358103,1576633,1968502
1358036,1576535,1968703
1358028,1575740,1968202
1358028,1576182,1968139
1358007,1576277,1968183
1358145,1576074,1968551
1357765,1576262,1968786
1358145,1576197,1968850
1358063,1576127,1968233
1358149,1577272,1967690
1358072,1577961,1967089
1357755,1578889,1968847
1357937,1579468,1968128
1357740,1581017,1968309
1358772,1582732,1967653
1357739,1582845,1967140
1357673,1582214,1967147
1357937,1580958,1968470
1357869,1581435,1968717
1357660,1581525,1968962
1357390,1581394,1969249
1357361,1581159,1969983
1357235,1581151,1968405
1357172,1580998,1968688
1356634,1580861,1967906
1356409,1581099,1967468
1356415,1581769,1968319
1356231,1582925,1968049
1356209,1583601,1968679
1356324,1584186,1967450
1356138,1585233,1967352
1355980,1587816,1968436
1356014,1589153,1968394
1356138,1590704,1967768
1355943,1591441,1966922
1355944,1592645,1966538
1355989,1592951,1966466
1355817,1593611,1967097
1355813,1597481,1967274
1355731,1600116,1967574
1355771,1600021,1967310
1356052,1601282,1967343
1355795,1602281,1966923
1355616,1603096,1967745
1355748,1604130,1967487
1355604,1606645,1966903
1355281,1607513,1965870
1355799,1609204,1967158
1355853,1610119,1967589
1355712,1612440,1966592
1355719,1613831,1967282
1356128,1616136,1967427
1356109,1619217,1966614
1356000,1620718,1965927
1356256,1620934,1967395
1356311,1621119,1968167
1356612,1621562,1967240
1356055,1622292,1966801
1356215,1622131,1967695
1356137,1622101,1967982
1356136,1620661,1967159
1356208,1619086,1968452
1356119,1616538,1968145
1356202,1614036,1968048
1356277,1612424,1967341
1355554,1610054,1967892
1355702,1609674,1968275
1355776,1609126,1968530
1355418,1608661,1969957
1355236,1608797,1968587
1354820,1608918,1968201
1355060,1610245,1968906
1354950,1611144,1968714
1354921,1611225,1969867
1354770,1610790,1968504
1354669,1611384,1968681
1354878,1612378,1968797
1354778,1612367,1969364
1354546,1612955,1969167
1354200,1612796,1968555
1354354,1612895,1967572
1354557,1612977,1968274
1354473,1613171,1968343
1354466,1613078,1969107
1354384,1612593,1968166
1354364,1612364,1967876
1354276,1612484,1967660
1354087,1612237,1968275
1355131,1612404,1968049
1354765,1611982,1968076
1354543,1611805,1968361
1354337,1611428,1968295
1354352,1611982,1967737
1354155,1612191,1968404
1354307,1612300,1967272
1354106,1612119,1967573
1354106,1612725,1969042
1354017,1612773,1968502
1354174,1612698,1968969
1353798,1613007,1968195
1354270,1612737,1968295
1354486,1612561,1968676
1354816,1613081,1967745
1354274,1612720,1968218
1354217,1612529,1969377
1354279,1611872,1969481
1354359,1611798,1968313
1354215,1611407,1967978
1354254,1610833,1968362
1354121,1609765,1968468
1354379,1610123,1968400
1354615,1610217,1968415
1354423,1610288,1969320
1354529,1610206,1969829
1354706,1609855,1968435
1354647,1610243,1969295
1355446,1610759,1968821
1354792,1611473,1969424
1354429,1611970,1969008
1354429,1611874,1969668
1354406,1611724,1969181
1354367,1611299,1970402
1354237,1611090,1970067
1354431,1609713,1969447
1354484,1609745,1969773
1354202,1610034,1970886
1354009,1609678,1969433
1354525,1609232,1969582
1355085,1609382,1969349
1354446,1609258,1969821
1354094,1609120,1970464
1354222,1608616,1969712
1354235,1608115,1969751
1354025,1607715,1970106
1354196,1607425,1971077
1354005,1606576,1969758
1353788,1606505,1970937
1353578,1605519,1971676
1353834,1606098,1970180
1353753,1606525,1971192
1353522,1607279,1971693
1353490,1607854,1971453
1353522,1607893,1971140
1353496,1607711,1970493
1353734,1608094,1971260
1353523,1608610,1970624
1353390,1608652,1972951
1353728,1607989,1972576
1353502,1607560,1972348
1353604,1606977,1971455
1353624,1605952,1972536
1353260,1604999,1971908
1353395,1604896,1972802
1353369,1605053,1972770
1353409,1604729,1972600
1353370,1604523,1972772
1353414,1604541,1972232
1353357,1604213,1972763
1353518,1604440,1972228
1353365,1604487,1972531
1353357,1604059,1973745
1353148,1603914,1973159
1353175,1603831,1972515
1353507,1603641,1972572
1353776,1603644,1974201
1353710,1603550,1974409
1353766,1603502,1972962
1353623,1603606,1972809
1353496,1603871,1974592
1353633,1604455,1973380
1353513,1604647,1973729
1353541,1604849,1971992
1353541,1604696,1972165
1353657,1605107,1973926
1353700,1605786,1973604
1353832,1605971,1973189
1353811,1606282,1973434
1353711,1606717,1971993
1353800,1607802,1972342
1353767,1608166,1971755
1353824,1609096,1971613
1353902,1608782,1972634
1353741,1608547,1972517
1354262,1609580,1971726
1354137,1610287,1972399
1354534,1609838,1971992
1354480,1609015,1973152
1354566,1609418,1972965
1354565,1609124,1973581
1354243,1609430,1974358
1354201,1608969,1974091
1354136,1608973,1973668
1354269,1607183,1973126
1353965,1606307,1972922
1353784,1605639,1973381
1353543,1604703,1972942
1353853,1604443,1973233
1353638,1605035,1972377
1353720,1606114,1973366
1353892,1607086,1974211
1353801,1607128,1972013
1353541,1607691,1973872
1353672,1608309,1974577
1353671,1608732,1973864
1353349,1608981,1974122
1353586,1609182,1973383
1353498,1608782,1974887
1353771,1608546,1974074
1353545,1608340,1973537
1353543,1607557,1975120
1353486,1607116,1973744
1353336,1606778,1973367
1353538,1604992,1973261
1353416,1603973,1973468
1353451,1604353,1975020
1353614,1604528,1974397
1353611,1604344,1972960
1353675,1603756,1974969
1353418,1603014,1974056
1353399,1602738,1973992
1353563,1602778,1975009
1353479,1602676,1973986
1353326,1602027,1974865
1353519,1600605,1974658
1353411,1599887,1975123
1353714,1599957,1975306
1353746,1598932,1974779
1353820,1597408,1975282
1353815,1597896,1976013
1353712,1597562,1975060
1354179,1597460,1975462
1353413,1597358,1975528
1353724,1596721,1975410
1353637,1596638,1975780
1353783,1596256,1974737
1354294,1596175,1975117
1353924,1595924,1974866
1353591,1595418,1974374
1353728,1595500,1975247
1353820,1595597,1976445
1353996,1595495,1976344
1354081,1595609,1976785
1354315,1595459,1975829
1354330,1595383,1977312
1354214,1595710,1976241
1353753,1595674,1976369
1354453,1595272,1975854
1354059,1594331,1975029
1354308,1594384,1975674
1354397,1594388,1975686
1354176,1594840,1976303
1353803,1595202,1975693
1353856,1594798,1976156
1353957,1594686,1975420
1353192,1594789,1975712
1353535,1593952,1975097
1353470,1593954,1974777
1353711,1594019,1975070
1354308,1593523,1975952
1354080,1593375,1974717
1353851,1593031,1974745
1353912,1592709,1974417
1353744,1592974,1974375
1353427,1593187,1974361
1353600,1594832,1973918
1353286,1596388,1975246
1353726,1596331,1976449
1353664,1596864,1975913
1354337,1597411,1976632
1353798,1597606,1976657
1353577,1597702,1976322
1353648,1598014,1976173
1353731,1598427,1977380
1353549,1599132,1975922
1353685,1600312,1975575
1353708,1600194,1975366
1353753,1602172,1976281
1353940,1603156,1976306
1353961,1604166,1976714
1353897,1605317,1976051
1353962,1606292,1976111
1353776,1606515,1977524
1353991,1607827,1976728
1354269,1608814,1976948
1353980,1610432,1975871
1354064,1611487,1976176
1354157,1612532,1977367
1354296,1613214,1976734
1355202,1614130,1976939
1354534,1614953,1976764
1354474,1615520,1975641
1354432,1616177,1976218
1354510,1617164,1977727
1354605,1618046,1976035
1354819,1618758,1977341
1355009,1618389,1976444
1354875,1619590,1976789
1354786,1620244,1977071
1354930,1620915,1977024
1354937,1621593,1977377
1354941,1622750,1978047
1354941,1623413,1977571
1354899,1624283,1977401
1355162,1624838,1978454
1355135,1625579,1979391
1355437,1625606,1976968
1355276,1625625,1977776
1355407,1626153,1977277
1355348,1626582,1978055
1355525,1626740,1976888
1355504,1626915,1978000
1355539,1627145,1978244
1355645,1627331,1978389
1355483,1627702,1980014
1355732,1628365,1978463
1355871,1628914,1978937
1355925,1629700,1979406
1355979,1630163,1979391
1355933,1630914,1979205
1356226,1631912,1979585
1355965,1634476,1978894
1355700,1634419,1979889
1355994,1634419,1981111
1355966,1634642,1980565
1356008,1635154,1979606
1356038,1636338,1980995
1355700,1637877,1980913
1355805,1639386,1983155
1356064,1640703,1982580
1356361,1642474,1981849
1356361,1644123,1981561
1356228,1644923,1981236
1356100,1645907,1981758
1356212,1647017,1982672
1356304,1647973,1983046
1356828,1648730,1981829
1356658,1649680,1982752
1356823,1650315,1981839
1356910,1651128,1982595
1356783,1652093,1982664
1356768,1653929,1984014
1356578,1653575,1981848
1356957,1653012,1983589
1356952,1651984,1983077
1356701,1651605,1983583
1356787,1649986,1983135
1356735,1649236,1982144
1356838,1648689,1982599
1357022,1647949,1981689
1356511,1646614,1982253
1356731,1645440,1984561
1356822,1644971,1983496
1357013,1644299,1983376
1357191,1643832,1983268
1357359,1643543,1982907
1357253,1643335,1983033
1357342,1641621,1981617
1357135,1639800,1982380
1357179,1638646,1982051
1357473,1638953,1984329
1357447,1638363,1983660
1357477,1638418,1984106
1357765,1637288,1983391
1357368,1636490,1982909
1357381,1636494,1983155
1357676,1636379,1983054
1357899,1637713,1981533
1357781,1637325,1983482
1357779,1637420,1981889
1357960,1637976,1982296
1358040,1637409,1983507
1357646,1637615,1984193
1357461,1637601,1982819
1357645,1637442,1983396
1357893,1636883,1981946
1357508,1636432,1982362
1357607,1635918,1982945
1357618,1635572,1984394
1357802,1636453,1982420
1357744,1636437,1983250
1357704,1636155,1982936
1357871,1636354,1982448
1357761,1636185,1983611
1357646,1636013,1984877
1358367,1636456,1985399
1357744,1636607,1984307
1357444,1636320,1984473
1357775,1636483,1983822
1357575,1637122,1984692
1357866,1639912,1985370
1357815,1642303,1986440
1358597,1641470,1985532
1358193,1641003,1983949
1357853,1641283,1984753
1358159,1641495,1985691
1358079,1642841,1985827
1358391,1644101,1985692
1358004,1645730,1986786
1358230,1646399,1986164
1358433,1647024,1986042
1358517,1647222,1986009
1358619,1646236,1986698
1358569,1642514,1986407
1358451,1640912,1986096
1358337,1639198,1985848
1358395,1636819,1987201
1358319,1635859,1987893
1358253,1634750,1987372
1357830,1633688,1986958
1357743,1632584,1986031
1357741,1631081,1986284
1357747,1630250,1987601
1357809,1628775,1985872
1357617,1627575,1988167
1357750,1625575,1986480
1357482,1624588,1987214
1357437,1623550,1986721
1357772,1622123,1987644
1357819,1621111,1987654
1357744,1620365,1987247
1357628,1620188,1987407
1357666,1620002,1988222
1357468,1620244,1987868
1357724,1620094,1989899
1357826,1619286,1988907
1357805,1619129,1988931
1357660,1619116,1988230
1357724,1617396,1989495
1357522,1616561,1990472
1357526,1615995,1989899
1357295,1615269,1989919
1357007,1614061,1988955
1357241,1614044,1987590
1357254,1613510,1989061
1357299,1613076,1989244
1357585,1612571,1989371
1357532,1612020,1989201
1357504,1611529,1987700
1357570,1610840,1987382
1357587,1610075,1986913
1357601,1609666,1988448
1357278,1609740,1987666
1357278,1609531,1987055
1357191,1609307,1986476
1357415,1609373,1985898
1357398,1609204,1986700
1357381,1608248,1986113
1357098,1607611,1986188
1357247,1606665,1985088
1357288,1606275,1984901
1357217,1605995,1984938
1357331,1606015,1984775
1357374,1605453,1984891
1357088,1604709,1984422
1357216,1604028,1985514
1357214,1603267,1984746
1357243,1602854,1984694
1357499,1602296,1984593
1357313,1602163,1984713
1357318,1601641,1984885
1357405,1601614,1983951
1357474,1601379,1982805
1357317,1601240,1984224
1357256,1600718,1983329
1357256,1600263,1983253
1356985,1599336,1983727
1357031,1598747,1984440
1357016,1598684,1982648
1357100,1598115,1983311
1357200,1597604,1983630
1357038,1597242,1982843
1356960,1597643,1981812
1357360,1597781,1981004
1357060,1598082,1980712
1357121,1598206,1981845
1356794,1598338,1980848
1356623,1598676,1980635
1356740,1598609,1981739
1356809,1598815,1981032
1356886,1598553,1982247
1356804,1598359,1982383
1356717,1598228,1982782
1356541,1598170,1982368
1356387,1598122,1981510
1356332,1598234,1982457
1355955,1598227,1983408
1355955,1597779,1982463
1355884,1597797,1981987
1355977,1597708,1982870
1355868,1598232,1982822
1356069,1598882,1982777
1355935,1599166,1982948
1355784,1599009,1983348
1355539,1598642,1983085
1355602,1598434,1984093
1355602,1597996,1984277
1355602,1597112,1984279
1355539,1595901,1983532
1355346,1594491,1983249
1355389,1593819,1984017
1355295,1593161,1983357
1355086,1592706,1983960
1355333,1592813,1984866
1355106,1592782,1984030
1354868,1593330,1984767
1355168,1593614,1983922
1355255,1594242,1983801
1354763,1594717,1983177
1355127,1594430,1984836
1354611,1593940,1985080
1354478,1593563,1983150
1354594,1593449,1983447
1354619,1594853,1984241
1354773,1595748,1984598
1354759,1598405,1983527
1354890,1599998,1983743
1354968,1601373,1984993
1354914,1603146,1984630
1354868,1605014,1983922
1354825,1606026,1984014
1355124,1607034,1984433
1354849,1607493,1984596
1355134,1607885,1984362
1354986,1607735,1984495
1355253,1607983,1984882
1355308,1607221,1984029
1355331,1605152,1984169
1354972,1604602,1983576
1354686,1603539,1982651
1354538,1602550,1983484
1354418,1600817,1983329
1354140,1599732,1984039
1354353,1598007,1981821
1354310,1597859,1983674
1354502,1597226,1982659
1354138,1596425,1982606
1354053,1595041,1983172
1353951,1593958,1981982
1353961,1592920,1982628
1354483,1591790,1982313
1354063,1590612,1983334
1354267,1589433,1983901
1353771,1588604,1984383
1353791,1588467,1983802
1353678,1586584,1984615
1353515,1585382,1983038
1353559,1585282,1983658
1353647,1584904,1984013
1353396,1585020,1984625
1353615,1584577,1984115
1353402,1584539,1983795
1353045,1585623,1984071
1353196,1584237,1983691
1352907,1582256,1984561
1353139,1579455,1985226
1353018,1576445,1982578
1353005,1575709,1983915
1353020,1574704,1984505
1352638,1572448,1983672
1352838,1572148,1984307
1352781,1571800,1984375
1352631,1571549,1983934
1352600,1569855,1985638
1352638,1567397,1985221
1352912,1565787,1984700
1352616,1565049,1984332
1352514,1563993,1983799
1352606,1563358,1984703
1352075,1563069,1983993
1352310,1562811,1984116
1352406,1562611,1985277
1352315,1560883,1986077
1352072,1560584,1983908
1352288,1560232,1984692
1352305,1559241,1985124
1352482,1559532,1985520
1352366,1559149,1985652
1352105,1558721,1985319
1351924,1558720,1984927
1351911,1558276,1985812
1352002,1558037,1984855
1351999,1557531,1986182
1351763,1557018,1984456
1351691,1556666,1983845
1351142,1556051,1985444
1351406,1556231,1984632
1351176,1556074,1985077
1351122,1555891,1986907
1351208,1555746,1986026
1350773,1555729,1984302
1350617,1556059,1985383
1350464,1555910,1985873
1350460,1555847,1985926
1350658,1555605,1986983
1350418,1555775,1986777
1350718,1555171,1987445
1350462,1554946,1985434
1350312,1554919,1985667
1350307,1554991,1986232
1350469,1555021,1985688
1350518,1554833,1986220
1350356,1554643,1987074
1350312,1554603,1987179
1350315,1554556,1985429
1350443,1554624,1985266
1350173,1554569,1985660
1349764,1554230,1984825
1349790,1553497,1986281
1349650,1552697,1985600
1349821,1552779,1985656
1349931,1552196,1985460
1349686,1552177,1984983
1349430,1552102,1984847
1349474,1551653,1985085
1349426,1551130,1985466
1349244,1551124,1985804
1349110,1550869,1985764
1349213,1550555,1985022
1349196,1550789,1985023
1349263,1550950,1985967
1349369,1551037,1984821
1349570,1551046,1984465
1349297,1551213,1983230
1349474,1550880,1986192
1349432,1551218,1984428
1349407,1551125,1984755
1349453,1551296,1984900
1349283,1551131,1985522
1348858,1551229,1985481
1348858,1551330,1984071
1348960,1551695,1984791
1349239,1551557,1985097
1349220,1551570,1985416
1349253,1551657,1984307
1349160,1551826,1983817
1349284,1552247,1983856
1349131,1552562,1985438
1349141,1553333,1985393
1349186,1553848,1986352
1349022,1554264,1986552
1349291,1554969,1985970
1349293,1555682,1986410
1349290,1557623,1987144
1349441,1559260,1986933
1349700,1559510,1986288
1349481,1559548,1985813
1349687,1560271,1986658
1349664,1561638,1985185
1349708,1562965,1985162
1349177,1563824,1985162
1349350,1564348,1986280
1349285,1564753,1986545
1349233,1565201,1986260
1349045,1565356,1986360
1349008,1565339,1986293
1348723,1565473,1985855
1348821,1565668,1986296
1348780,1565591,1986378
1349084,1565451,1986306
1349017,1565540,1985728
1348807,1565399,1985716
1348946,1565799,1985963
1348975,1566467,1985429
1348706,1566951,1985522
1348626,1567751,1985332
1348353,1568072,1985381
1348353,1569399,1986928
1348468,1570479,1987025
1348465,1571213,1985883
1348807,1572326,1987246
1348520,1573049,1987026
1348606,1574316,1986911
1348534,1575717,1985728
1348464,1576882,1985728
1348861,1578751,1986104
1348484,1579962,1985462
1348707,1584318,1985822
1348642,1587879,1986706
1348851,1590827,1987397
1348682,1593015,1987468
1348510,1593976,1989131
1348641,1594758,1989098
1348738,1595247,1987793
1348918,1595578,1987235
1348702,1596199,1988627
1348875,1596022,1988421
1348862,1596273,1987820
1348925,1596500,1987781
1348985,1596557,1988823
1348977,1596525,1988106
1348264,1596524,1989682
1348962,1597241,1988424
1348801,1597708,1987512
1349447,1598634,1988149
1350069,1598957,1987445
1349561,1599299,1988069
1349683,1599716,1988269
1349633,1601747,1987631
1349417,1604021,1987026
1349840,1609612,1986711
1349915,1611721,1987852
1350055,1613245,1988664
1349514,1614954,1989379
1349757,1617810,1988398
1350145,1618995,1987547
1351175,1620330,1987744
1350260,1620323,1988578
1350279,1621079,1988977
1350353,1622205,1987010
1350810,1623817,1988389
1351371,1625669,1987624
1350623,1627657,1987635
1350780,1628492,1987492
1350979,1628985,1988185
1350759,1629307,1988374
1350497,1629286,1987597
1350564,1630066,1987931
1350667,1633012,1987479
1351162,1639565,1988754
1351166,1645857,1988659
1351445,1650939,1989879
1351444,1654295,1989606
1351573,1657295,1988875
1351708,1658294,1987759
1351850,1658993,1990330
1351823,1660270,1989003
1351667,1660215,1989599
1351497,1659160,1988914
1351695,1658975,1988958
1351980,1660448,1988836
1351911,1661037,1990234
1351985,1660561,1988110
1351917,1660368,1989283
1352118,1660599,1990418
1352288,1660611,1989862
1352081,1660327,1989555
1351886,1660025,1989543
1352077,1659543,1988987
1352152,1659162,1990067
1352079,1659023,1990072
1352298,1658648,1991662
1351985,1658494,1991077
1351908,1658306,1991253
1352038,1658425,1990357
1352383,1658044,1990997
1352252,1656873,1990875
1352090,1655276,1991101
1352202,1655670,1991506
1352467,1655713,1992389
1352377,1656398,1991256
1352169,1656943,1991079
1351876,1656979,1991119
1351990,1657140,1991849
1351958,1657452,1993517
1352130,1658587,1992410
1352000,1659347,1993898
1351992,1660787,1992955
1352219,1661347,1993195
1352196,1661415,1992167
1351983,1660944,1991154
1352077,1660889,1991987
1352104,1661133,1993041
1351968,1661702,1992874
1351722,1662387,1992123
1351836,1662987,1992323
1351886,1663647,1992061
1352057,1664344,1993439
1352004,1665037,1993064
1351982,1665195,1994386
1351904,1665266,1993704
1352039,1665696,1992642
1351925,1665762,1992377
1352344,1665021,1992838
1352345,1664833,1992232
1352102,1664510,1992426
1352086,1664527,1993092
1352275,1664641,1994205
1352272,1665203,1992618
1352078,1665724,1993122
1352003,1666395,1991225
1352003,1666815,1992618
1351978,1667021,1993346
1351991,1667598,1992065
1352161,1667802,1992673
1352094,1667590,1993040
1352121,1667940,1993484
1352266,1668547,1994335
1352306,1668832,1993087
1352356,1669056,1993818
1352258,1669068,1994319
1352533,1669118,1994692
1352374,1669251,1994024
1352318,1670145,1993810
1352826,1670603,1993431
1352810,1670376,1993286
1352655,1670855,1994734
1352894,1671645,1995327
1353087,1671670,1995836
1353230,1671677,1994873
1353091,1671260,1995381
1353025,1671303,1994142
1353225,1670857,1996417
1353386,1671291,1996059
1353319,1671967,1995792
1353174,1671894,1994708
1352957,1672179,1995337
1352886,1671832,1996443
1353087,1671429,1995160
1352993,1671541,1994794
1352441,1671569,1995247
1352631,1671738,1994947
1352812,1671558,1995617
1352963,1672056,1996306
1352705,1672473,1995241
1352671,1672254,1995857
1352316,1672162,1994901
1352423,1672432,1995724
1352811,1672848,1995312
1352616,1673365,1996708
1352710,1675023,1994918
1352929,1676980,1995806
1353001,1677553,1996481
1352976,1678484,1995999
1353096,1678854,1995324
1353032,1678282,1996510
1353165,1678173,1995823
1352886,1678184,1995638
1352199,1678688,1996001
1352848,1678538,1995845
1353028,1678788,1996305
1353019,1679543,1996000
1353155,1680220,1996498
1353519,1681556,1996633
1353372,1682745,1996590
1353551,1682763,1997868
1353997,1683339,1997584
1353983,1683332,1996337
1353948,1683308,1996128
1353789,1683135,1996442
1353577,1683342,1995612
1353785,1683817,1995810
1353988,1684183,1996337
1353972,1685695,1997273
1354415,1688581,1996778
1354346,1690251,1996233
1354013,1689635,1996505
1354238,1689286,1998309
1354370,1688785,1997349
1354002,1688641,1996883
1353776,1688532,1997019
1353744,1688306,1997885
1353923,1687904,1997552
1353955,1687526,1999184
1353877,1687516,1997197
1353907,1687165,1997910
1353862,1687223,1998011
1353912,1686700,1997409
1354074,1685912,1997362
1354145,1685218,1997357
1354098,1685640,1997334
1354098,1685487,1996757
1354192,1685625,1997018
1353878,1685770,1996936
1353749,1686170,1996933
1353924,1686326,1997121
1353793,1686181,1998276
1353995,1686431,1996307
1354023,1686522,1997218
1353719,1686555,1996922
1354115,1687327,1998182
1354276,1688620,1998643
1354233,1688971,1996320
1354450,1689337,1998124
1354300,1689609,1998679
1354330,1689822,1998457
1354258,1690127,1997694
1353979,1690383,1997529
1354036,1690098,1997204
1354243,1689973,1996763
1354311,1690008,1997031
1354510,1689666,1997509
1354401,1689748,1997444
1354330,1689473,1996563
1354390,1689474,1996067
1354529,1689695,1997623
1354415,1689894,1996982
1354752,1690080,1998567
1354730,1690423,1999649
1354819,1690266,1998600
1354765,1690703,1999044
1355097,1691434,1998493
1355250,1691974,1998548
1355082,1691913,1998320
1354814,1692186,1996958
1355198,1692692,1996693
1355301,1692721,1997648
1354961,1692885,1997923
1354965,1692916,1997790
1354921,1693108,1996790
1354970,1692603,1998064
1354746,1692378,1996922
1354742,1692495,1997078
1354717,1692424,1998289
1355173,1692198,1997912
1355002,1692015,1998436
1354903,1691325,1997684
1354626,1690644,1997063
1354603,1690605,1997486
1354611,1690287,1997859
1354636,1690216,1999094
1354231,1690280,1997754
1354231,1690389,1997570
1354309,1690422,1998497
1354504,1690331,1997849
1354575,1690258,1998066
1354474,1690114,1998118
1354402,1689592,1997131
1354629,1689444,1997824
1354346,1689461,1997873
1354337,1689273,1997119
1354526,1689378,1997698
1354433,1688826,1997148
1354547,1688284,1996851
1354264,1687991,1996271
1354218,1687771,1998254
1354532,1687518,1997541
1354672,1687558,1998604
1354856,1687751,1996856
1354773,1687495,1998346
1354218,1687489,1998108
1354313,1685963,1997934
1354530,1686451,1999605
1354593,1686106,2000256
1354044,1685827,1999009
1354248,1685821,1998164
1354308,1685541,1997845
1354719,1685288,1999313
1354417,1684810,1998502
1354345,1684902,1998250
1354471,1684815,1996752
1354234,1684213,1997843
1354284,1683220,1996788
1354273,1683041,1997628
1354436,1681332,1996653
1354295,1680603,1996562
1354468,1680759,1996371
1354682,1680205,1997662
1354533,1679986,1997060
1354498,1678891,1996616
1354288,1679029,1997350
1354385,1678850,1996919
1354219,1678248,1996660
1354074,1677773,1996304
1354856,1675852,1996816
1354230,1674697,1996382
1354409,1673628,1997294
1354050,1672558,1995939
1353620,1671025,1997029
1353723,1670765,1996638
1354217,1670409,1996627
1353712,1669919,1995820
1353538,1669895,1996821
1353376,1669213,1995878
1353050,1668831,1995610
1353204,1668659,1996225
1353235,1668503,1997109
1353287,1667607,1997155
1353253,1667274,1996793
1352823,1666997,1995259
1352613,1667239,1995277
1352942,1667077,1996071
1353160,1667223,1995581
1353215,1667081,1995212
1353095,1667276,1996065
1353033,1666973,1995750
1353045,1667121,1995754
1353077,1667133,1995495
1352997,1667341,1996070
1352471,1667042,1997179
1352471,1666350,1996250
1352720,1666393,1995720
1352693,1666397,1995632
1352685,1666057,1996120
1352583,1665630,1995567
1352569,1665033,1995520
1352586,1664830,1994146
1352447,1664996,1994785
1352432,1664464,1994855
1352444,1663406,1995790
1352176,1662918,1995900
1352440,1662914,1995061
1352484,1663010,1996452
1352112,1663444,1996873
1352418,1664220,1996632
1352460,1664371,1996915
1352275,1665261,1997255
1352003,1665633,1996557
1352313,1666658,1997155
1352297,1667809,1996795
1352355,1669233,1996600
1352646,1669950,1997231
1352350,1670035,1997119
1352629,1671019,1997179
1352557,1672011,1997859
1352854,1672640,1997428
1352799,1672920,1997253
1352977,1673453,1997212
1352888,1673433,1996702
1353102,1673768,1997866
1352824,1674650,1997199
1352731,1675296,1998282
1353055,1676223,1997701
1352777,1676992,1997482
1352805,1678087,1997275
1352653,1678585,1997570
1352806,1681772,1996352
1352835,1684691,1997076
1352644,1685605,1998023
1352738,1686449,1999034
1352883,1687202,1998061
1352919,1687686,1998450
1352799,1688415,1998246
1352718,1689465,1997380
1352597,1690526,1998797
1352543,1690476,1999290
1352574,1690789,1998089
1352601,1691870,1998237
1352657,1693874,1997594
1352486,1693501,1999327
1352772,1692021,1998567
1352196,1690446,1999120
1352394,1690503,1997491
1352395,1690538,1998041
1352461,1690413,1998174
1352217,1689686,1997857
1352303,1689750,1997043
1352454,1689814,1997004
1352693,1690068,1997312
1352580,1688984,1997146
1352645,1688303,1997114
1352924,1688424,1996770
1353085,1688176,1997273
1352987,1688295,1995357
1352922,1688730,1998264
1353093,1689385,1997438
1352691,1690049,1996700
1352923,1690592,1997362
1352978,1690723,1997367
1352854,1691179,1996200
1352702,1691394,1996756
1353118,1691323,1997376
1353139,1690845,1996582
1353071,1690802,1995746
1353586,1690741,1996535
1353549,1690511,1996988
1353353,1690178,1996941
1353254,1689859,1996602
1353251,1689915,1996410
1353191,1690055,1995133
1353247,1690235,1996337
1353157,1690423,1996479
1352975,1690906,1996540
1352879,1690680,1996416
1352851,1690275,1997368
1352954,1689420,1997268
1353488,1689207,1996014
1352706,1688618,1996124
1352511,1687948,1997463
1352478,1687090,1995694
1352465,1686435,1996561
1352436,1685749,1995981
1352543,1684890,1995907
1352547,1683156,1998169
1352386,1683192,1997302
1352375,1682716,1996899
1352416,1682146,1996270
1352777,1681565,1996265
1352701,1680848,1996639
1352667,1679890,1997384
1352994,1679150,1997240
1352920,1678178,1997210
1352594,1677826,1998174
1352292,1676999,1997466
1352292,1676169,1997709
1352449,1675677,1998309
1352474,1675401,1998023
1352144,1674635,1996668
1352321,1674178,1995858
1352418,1674077,1997851
1352368,1673641,1997037
1352329,1673479,1997378
1352431,1672747,1996126
1352550,1673565,1996697
1352600,1674426,1996779
1352700,1675785,1996739
1353139,1675316,1997748
1352967,1675625,1996623
1353164,1674969,1996622
1352943,1675201,1996564
1352995,1675219,1998025
1352864,1675295,1996145
1353231,1674877,1998582
1353016,1674318,1995888
1353185,1674657,1995717
1353252,1674560,1996172
1352969,1674254,1996530
1353166,1674870,1997026
1353277,1676274,1998179
1353229,1676279,1997921
1353080,1676188,1997996
1353367,1677069,1999123
1353289,1677036,1998067
1353142,1677131,1997758
1352921,1677772,1998278
1352892,1678593,1998136
1352771,1678828,1997893
1353000,1679093,1997535
1353248,1678643,1997724
1352768,1677935,1997810
1352881,1678567,1998572
1352775,1678873,1997364
1352995,1679711,1997532
1353407,1681389,1997936
1353299,1683223,1998507
1352983,1683363,1997382
1353285,1683266,1997076
1353247,1682874,1997445
1353406,1682997,1997296
1353076,1683380,1997596
1353085,1682845,1998517
1352912,1682516,1997991
1352957,1680942,1997527
1353121,1680275,1997271
1353145,1679013,1997064
1353002,1678322,1998414
1353181,1677748,1998166
1352874,1677077,1998876
1353261,1677062,1997143
1353387,1676961,1998798
1353250,1676960,1999008
1353018,1676460,1997820
1353200,1676297,1997484
1353267,1675987,1998731
1353360,1675605,1997561
1353411,1675450,1998460
1353127,1674464,1997477
1353444,1673644,1996828
1353495,1672850,1997752
1353434,1672326,1997037
1353031,1672105,1997858
1353187,1672373,1997292
1353052,1672000,1997151
1352917,1671974,1997001
1352701,1671419,1997073
1352456,1671452,1997315
1352734,1671146,1996521
1352447,1671327,1997996
1352750,1670875,1998834
1352402,1671112,1998741
1352633,1670766,1997747
1352413,1670235,1997281
1352253,1668526,1997673
1351698,1668676,1997298
1352187,1668298,1999014
1352082,1668246,1997260
1352134,1668499,1998715
1352185,1668277,1997784
1351926,1668241,1997308
1352065,1668351,1996858
1351905,1667827,1996327
1351922,1667104,1997690
1352292,1666865,1996364
1351987,1666430,1996575
1351934,1666864,1997391
1352211,1666850,1997896
1352186,1666694,1997461
1352050,1667490,1997603
1352345,1667665,1996672
1352039,1667296,1998940
1352167,1667669,1997511
1352031,1667520,1998285
1352613,1667125,1998511
1352133,1667016,1997831
1352443,1668412,1997127
1352452,1669287,1997688
1352230,1668586,1997857
1352308,1668960,1997078
1352497,1668586,1997179
1352334,1668665,1998216
1352351,1668866,1996880
1351843,1668919,1998338
1351425,1669084,1998303
1351535,1669002,1998484
1351383,1668777,1998396
1351471,1668035,1997994
1350894,1668211,1998297
1350878,1667454,1998078
1351166,1666926,1998264
1350925,1665588,1999205
1350761,1664415,1998510
1350652,1664678,1998685
1350777,1664589,1998343
1350769,1664227,1997805
1350705,1664596,1998151
1350404,1664358,1996754
1350726,1663932,1997401
1350570,1663732,1996900
1350503,1663260,1997524
1350284,1662809,1998150
1350217,1662058,1997707
1350002,1661593,1996517
1350130,1661254,1996676
1350161,1661036,1996354
1350298,1660552,1997961
1350257,1659742,1997731
1350294,1659121,1996951
1350091,1658410,1998291
1350046,1658017,1996563
1349735,1656812,1996632
1349683,1654901,1995430
1349691,1654820,1996836
1349604,1654184,1996699
1349614,1653899,1996982
1349594,1653462,1996929
1349450,1652836,1997559
1349443,1652183,1995944
1349625,1652336,1997210
1349443,1652404,1997837
1349413,1652948,1997243
1349529,1652527,1996708
1349721,1652373,1998145
1349696,1652593,1997119
1349355,1652039,1997239
1349717,1652512,1996540
1349847,1652787,1997565
1349965,1653439,1996817
1349955,1654319,1997109
1349558,1654059,1997109
1349593,1654411,1996037
1349557,1654837,1996180
1349488,1654848,1998140
1349029,1654574,1997383
1348846,1655857,1995374
1348695,1656843,1996162
1348761,1657994,1996716
1348243,1659780,1997094
1348654,1660468,1997545
1348727,1660885,1996634
1348369,1661228,1996759
1348332,1661656,1995877
1348539,1662259,1996433
1348570,1662775,1996786
1348649,1664216,1997551
1348638,1665618,1996745
1348334,1665422,1997125
1348208,1664771,1997554
1348453,1664660,1996791
1348289,1665304,1995769
1348463,1665240,1995635
1348195,1665651,1996109
1348365,1666106,1995454
1348383,1666874,1995932
1348165,1667512,1995660
1348605,1668405,1996036
1348324,1668651,1997159
1348363,1669819,1996302
1348214,1669961,1995445
1348699,1671203,1996142
1348798,1671357,1995655
1348444,1671039,1995927
1348749,1671745,1996170
1348430,1671605,1993777
1348705,1672152,1995019
1348626,1673003,1995382
1348768,1673527,1994453
1348474,1674210,1994168
1348670,1674788,1994882
1348749,1675494,1994584
1349085,1675450,1994705
1348641,1675631,1993612
1348392,1675320,1994547
1348505,1675471,1994194
1348360,1676051,1994633
1348406,1675267,1994733
1347824,1675283,1995915
1347703,1674989,1994345
1348293,1675444,1994296
1348116,1675202,1994646
1347840,1674850,1992949
1347683,1674274,1992968
1347150,1674182,1994182
1347373,1673715,1993226
1347475,1673461,1993401
1347527,1673713,1993471
1347362,1674426,1992986
1347065,1675186,1993297
1347048,1676383,1994115
1347143,1677944,1992710
1347419,1679225,1993091
1347327,1682120,1993390
1347503,1683796,1992465
1347239,1686937,1992269
1347245,1687012,1992329
1347029,1684936,1990847
1347154,1683003,1991400
1347299,1682841,1991126
1347039,1681880,1990217
1347202,1681279,1991385
1347177,1680566,1991433
1347231,1679623,1991006
1347211,1678807,1991932
1347117,1677657,1992365
1346966,1675804,1992428
1346923,1674036,1992395
1346920,1673757,1991100
1346878,1673713,1991652
1346515,1672873,1991464
1346410,1672572,1990625
1346415,1671760,1990338
1345960,1671384,1991800
1345956,1670921,1990823
1345926,1670956,1991074
1345571,1670672,1989666
1345319,1670162,1990757
1345613,1669459,1992132
1345482,1668896,1991038
1345569,1668755,1992463
1345159,1668279,1991313
1345084,1668133,1991415
1345058,1668031,1992185
1345318,1667991,1991776
1345367,1667725,1990222
1345402,1667445,1991424
1345316,1667202,1991904
1345305,1667377,1990536
1345230,1667275,1990361
1345105,1667140,1990895
1344991,1667026,1991002
1344991,1666760,1991870
1344874,1666412,1992446
1344757,1666134,1991253
1344853,1665790,1991153
1344787,1665163,1991413
1344542,1664630,1992624
1344400,1664732,1991740
1344509,1664764,1992073
1344409,1664161,1990635
1344355,1664133,1991370
1344295,1662305,1990895
1344015,1661390,1990895
1344293,1661387,1991648
1344300,1661290,1990539
1343780,1659775,1990625
1344174,1659986,1990582
1344280,1659766,1992856
1344193,1659624,1990470
1343879,1659938,1990930
1343779,1659915,1991867
1343836,1660055,1991015
1344015,1659945,1990443
1344052,1660088,1990608
1344082,1660072,1991597
1343839,1659720,1991535
1343921,1659870,1992024
1343910,1659878,1991446
1343943,1659860,1991584
1344026,1660063,1992639
1344142,1660157,1991966
1344232,1660019,1990961
1344361,1660557,1991689
1344273,1661005,1992279
1344037,1662617,1992710
1344036,1663623,1992781
1344379,1664161,1992657
1343999,1664058,1990147
1343505,1663673,1990883
1343022,1664040,1991365
1343248,1665240,1991676
1342956,1666320,1990666
1342830,1668376,1989817
1342968,1669546,1990011
1343158,1669828,1991718
1342857,1671057,1991338
1342790,1673189,1990801
1342528,1673466,1990892
1342981,1673244,1991101
1342472,1673397,1990731
1342473,1673700,1991391
1342102,1672761,1991589
1342235,1671290,1990653
1341513,1668492,1990201
1341536,1664232,1989663
1341607,1664066,1990035
1341693,1663343,1990724
1341444,1662730,1990973
1341334,1661117,1991365
1341276,1660296,1990123
1341055,1659602,1989780
1341251,1658907,1990446
1341197,1657705,1990044
1341276,1656774,1991477
1341031,1656483,1992012
1341404,1655785,1990865
1341183,1655960,1990279
1341121,1656495,1990276
1341442,1656724,1990234
1341310,1657104,1991679
1341429,1657513,1991438
1341060,1657760,1991689
1341035,1658000,1991119
1340976,1657741,1990666
1341171,1656896,1990786
1341179,1656664,1990661
1341043,1657032,1990521
1341111,1655746,1991127
1340709,1653996,1990588
1340790,1654149,1991055
1340700,1653488,1990779
1340341,1653283,1990894
1339408,1652771,1990187
1339833,1652940,1990670
1340114,1651856,1991450
1339846,1651697,1990790
1339647,1650582,1990741
1339335,1649031,1989439
1339624,1649010,1990331
1339748,1648211,1991409
1339376,1646901,1991729
1339427,1646986,1993335
1339362,1646658,1992381
1339276,1646234,1990470
1339051,1646166,1991174
1338859,1645904,1991834
1338823,1645382,1992441
1338785,1645210,1991542
1338792,1645001,1991227
1338744,1645273,1992700
1338568,1644718,1992965
1338776,1644672,1992343
1338787,1645348,1991575
1338420,1645770,1992974
1338677,1646284,1992461
1338899,1646119,1992518
1338924,1646109,1992915
1338793,1646023,1993957
1338717,1646332,1992763
1338287,1645817,1993280
1338412,1645635,1992538
1338425,1645469,1992270
1338553,1645620,1992811
1338618,1645718,1993181
1338629,1645957,1993330
1338404,1645938,1991731
1338590,1646181,1992147
1338668,1646548,1992751
1338653,1646633,1992969
1338849,1646559,1992901
1338911,1646341,1991945
1338917,1646305,1992065
1338843,1646571,1992735
1338990,1647011,1991635
1339083,1647525,1990786
1338660,1647873,1990030
1338660,1648068,1989085
1338788,1648471,1989689
1338664,1648370,1990606
1338945,1648640,1990287
1338834,1649241,1990728
1338934,1649667,1989903
1338762,1651906,1989286
1338775,1652749,1989409
1338679,1653226,1989816
1338623,1653487,1988488
1338338,1653476,1990276
1338075,1652710,1989016
1337815,1652492,1989447
1338044,1652184,1990615
1337988,1652130,1991034
1338048,1651954,1990132
1337790,1651753,1988845
1337821,1651516,1987861
1337647,1651288,1989178
1337595,1651704,1989983
1337506,1651532,1988766
1337295,1651539,1989232
1337069,1651250,1989054
1337069,1650684,1988824
1336958,1649588,1989700
1336745,1648334,1990864
1336822,1647538,1990512
1336747,1646219,1989865
1336672,1645210,1988433
1336525,1643767,1987716
1336564,1642971,1988454
1336489,1642328,1988984
1336438,1641593,1988625
1336191,1640807,1989037
1336279,1639856,1988012
1336004,1639341,1988158
1336202,1638819,1989553
1336065,1638301,1988696
1336286,1637994,1987986
1336129,1637226,1988951
1335986,1636588,1987396
1335662,1636068,1987053
1335857,1635415,1986867
1335942,1634851,1987257
1335606,1634397,1987585
1335276,1634055,1986766
1335276,1633656,1986878
1335369,1633152,1987250
1335170,1632983,1988047
1335414,1632930,1987877
1335360,1632623,1987600
1335301,1632439,1986269
