GREEN,RED,IR
1593573,1027847,1168109
1593696,1027259,1167071
1593693,1026762,1166429
1593777,1025875,1165531
1593984,1025160,1165025
1594219,1024639,1165025
1594034,1024241,1164288
1594268,1023916,1164010
1594346,1024049,1163497
1594510,1024554,1163530
1594434,1025084,1163375
1594089,1025657,1163704
1594089,1026134,1163643
1594189,1026618,1164809
1594255,1027378,1164437
1594313,1028181,1165264
1594451,1028414,1164917
1594726,1028613,1166726
1594554,1028590,1163975
1594602,1028956,1162852
1594542,1028741,1162107
1594667,1028914,1161526
1594732,1029023,1160939
1594797,1028919,1160891
1594592,1028972,1160847
1594807,1029025,1162139
1594942,1029062,1162071
1595223,1029314,1161284
1595146,1029418,1162003
1595077,1029562,1161736
1594978,1029926,1162380
1595053,1029955,1162698
1594963,1030275,1163674
1594659,1030516,1164338
1594452,1030340,1164951
1594098,1030363,1164856
1593910,1030503,1166148
1593844,1030415,1166300
1593756,1030777,1167556
1593336,1031100,1166658
1593360,1031253,1166777
1593393,1031576,1165968
1593442,1031708,1167044
1593547,1031977,1165133
1593403,1032004,1165914
1593377,1031837,1164506
1593396,1032085,1165222
1593424,1032438,1164332
1593621,1032711,1165046
1593667,1032725,1165961
1593662,1032951,1165900
1593681,1033040,1166796
1593677,1033409,1165578
1593693,1033374,1166078
1593561,1033807,1165272
1593435,1033556,1165330
1593435,1033646,1165202
1593472,1033403,1165383
1593610,1033432,1165773
1593570,1033308,1166386
1593596,1033066,1166786
1593461,1032613,1166994
1593524,1032773,1166224
1593242,1032956,1166007
1593304,1032964,1165291
1593388,1033279,1165609
1593563,1033206,1163794
1593278,1033239,1162611
1593352,1033514,1161700
1593392,1033802,1161485
1593899,1034118,1161346
1593795,1034493,1161352
1593763,1034451,1162248
1593896,1034895,1162674
1593887,1035205,1164264
1593986,1035448,1164705
1594115,1035636,1166279
1593755,1035898,1166919
1593755,1035838,1168453
1593549,1035799,1168994
1593858,1036148,1170354
1594082,1036411,1171147
1593988,1036206,1172722
1594330,1036283,1171999
1594058,1036305,1171913
1594521,1036520,1170136
1594454,1036959,1170275
1594574,1037000,1169273
1594560,1037152,1169133
1594702,1036905,1168475
1594626,1037538,1168241
1595500,1037773,1166205
1595282,1036484,1162449
1594681,1033330,1149757
1594569,1029680,1141695
1594251,1028789,1132365
1593874,1028328,1127481
1593607,1027781,1125673
1593378,1027119,1126008
1593255,1026403,1126829
1593122,1025805,1128720
1592890,1026250,1130862
1593180,1027424,1134426
1593345,1028607,1139121
1593106,1029476,1143599
1593320,1029526,1146921
1593209,1029053,1148726
1593531,1028964,1149668
1593267,1028787,1150252
1593221,1028923,1150644
1592549,1029082,1151027
1592879,1029212,1149837
1592897,1029237,1148097
1593025,1029436,1147020
1592901,1029649,1145877
1593035,1029598,1145350
1592795,1029697,1143603
1592994,1029987,1142915
1592939,1030663,1143354
1593371,1031456,1143984
1593062,1031534,1144328
1593601,1031568,1144744
1593587,1031612,1144854
1593422,1031773,1144702
1593284,1031766,1144637
1593372,1031524,1144736
1593640,1031247,1145185
1593625,1031093,1146201
1593630,1030914,1147171
1593722,1030937,1148291
1593671,1030752,1149364
1593776,1030957,1150309
1593906,1031186,1150965
1594057,1031296,1151532
1593876,1031347,1151207
1593957,1031485,1151149
1594183,1031620,1150588
1594198,1032040,1150614
1594565,1032166,1150919
1594205,1032556,1151068
1593932,1032737,1151610
1593932,1032735,1151765
1594064,1033089,1152334
1594282,1033306,1152551
1594371,1033242,1153171
1594519,1032849,1153727
1594403,1032476,1153592
1594245,1031856,1151411
1593922,1031547,1148997
1593714,1030772,1144292
1593396,1030311,1140121
1593249,1029594,1132401
1593132,1029035,1122490
1593164,1028604,1116934
1593050,1028525,1115258
1593240,1028340,1114410
1593174,1028231,1115505
1593150,1028269,1116207
1593226,1028343,1118068
1592961,1028811,1120671
1593035,1029112,1123439
1593008,1029670,1130428
1592594,1029781,1134317
1592594,1029539,1137843
1592747,1029290,1140449
1592848,1028983,1143555
1592823,1028750,1145332
1592707,1028683,1147547
1592737,1028337,1148821
1592596,1028295,1150364
1592721,1028503,1151101
1592711,1028559,1151609
1592786,1028674,1151199
1592761,1028689,1150577
1592490,1028701,1149477
1592595,1028878,1148086
1592581,1028904,1144899
1592507,1028552,1140130
1592723,1028377,1133490
1592789,1027985,1124357
1592757,1027429,1119100
1592718,1027158,1117204
1592797,1026739,1116851
1592603,1026702,1119460
1592423,1025039,1122179
1592820,1024452,1125110
1592810,1023190,1128284
1593243,1021937,1131280
1593330,1020453,1134476
1593057,1018599,1135682
1592922,1016677,1137499
1593140,1014641,1138532
1593318,1013219,1140307
1593273,1012543,1142312
1593310,1012262,1144481
1593206,1012373,1145723
1593113,1012512,1146879
1593286,1012868,1147241
1593513,1013282,1147995
1593637,1013366,1148982
1593464,1013556,1150379
1593566,1013358,1151165
1593414,1013575,1152371
1593731,1013888,1153447
1593628,1014817,1154764
1593609,1015340,1155360
1593609,1015750,1156615
1593385,1016022,1157054
1593695,1016570,1157328
1593851,1016831,1158088
1593878,1017291,1158240
1593898,1017783,1159187
1594155,1019439,1159270
1594082,1020403,1159545
1594164,1020993,1159258
1594191,1021549,1159459
1594394,1021943,1159119
1594248,1021981,1160149
1594250,1022360,1159881
1594318,1022729,1160323
1594487,1023075,1161017
1594773,1023681,1162297
1594765,1023909,1163411
1594837,1024110,1164089
1594550,1023907,1164336
1594742,1023507,1166108
1594874,1022888,1165980
1594137,1022394,1166307
1594137,1021399,1166503
1593823,1020632,1166655
1593712,1020102,1167197
1593393,1020007,1167186
1593192,1019725,1167593
1593153,1019801,1167350
1592812,1020514,1167223
1592843,1020806,1166836
1592747,1020790,1166704
1592761,1020701,1166605
1592680,1019663,1167716
1592526,1019388,1167812
1592697,1020945,1168738
1592752,1021015,1169392
1592178,1020572,1170453
1592686,1020384,1171088
1592558,1020103,1171956
1592642,1020025,1171813
1592406,1020188,1174825
1592095,1020025,1172017
1592259,1019743,1171282
1592218,1019270,1170858
1592128,1018645,1171716
1592186,1017854,1172259
1592077,1016498,1172169
1592135,1015362,1172361
1592037,1014768,1172485
1592208,1014227,1172838
1592555,1013988,1171850
1592500,1013321,1171358
1592303,1012032,1169808
1592408,1009490,1169148
1592511,1006190,1168278
1592685,1002309,1168211
1592419,997629,1167340
1592419,994113,1167603
1592586,991741,1167887
1592638,990957,1168701
1592772,991167,1169478
1592548,992131,1171874
1592819,993453,1171232
1592767,995539,1171955
1592964,996472,1171984
1592996,997099,1172571
1593014,997788,1172040
1592899,998842,1171198
1592907,999505,1171665
1592757,1000650,1171331
1593045,1001925,1172340
1593108,1002798,1172409
1593738,1003941,1173725
1593330,1005032,1173361
1593524,1005916,1173695
1593303,1007417,1172549
1593826,1008839,1172654
1593708,1009394,1171878
1593844,1009622,1172654
1593844,1009635,1172408
1593605,1009684,1172773
1593869,1009738,1172623
1593900,1009879,1173652
1594007,1009922,1173816
1593974,1010086,1174535
1594255,1010954,1174104
1594321,1011355,1173817
1594415,1011656,1172982
1594419,1012268,1173113
1594710,1012801,1172187
1594599,1013051,1171350
1594379,1013442,1170652
1594470,1014114,1169921
1594636,1014682,1169158
1594795,1015330,1167987
1594743,1015833,1167787
1594535,1016307,1166672
1594241,1016762,1166334
1594142,1017170,1166285
1594250,1017638,1167580
1593776,1018066,1167867
1593776,1018464,1169867
1593527,1018919,1169939
1593063,1019475,1171260
1593549,1019562,1171695
1593413,1019663,1172454
1593698,1019582,1171907
1593526,1019966,1171470
1593357,1020297,1170915
1593388,1020277,1171020
1593541,1020765,1170056
1593367,1020862,1168700
1593349,1020644,1168059
1593278,1020326,1166293
1593537,1020257,1164972
1593435,1020188,1163675
1593939,1020303,1162883
1593719,1020330,1162469
1593788,1020304,1163142
1593447,1020634,1163007
1593702,1020695,1164080
1593658,1020878,1164791
1593537,1021185,1165593
1593537,1021248,1165835
1593375,1021724,1165029
1593296,1022188,1163600
1593453,1023051,1161371
1593504,1023571,1159508
1593521,1023928,1156338
1593631,1024623,1151189
1593569,1025030,1145867
1593641,1025328,1141781
1593584,1025831,1137665
1593673,1026117,1134043
1593671,1026330,1134350
1593570,1026568,1134738
1593742,1026959,1135009
1594035,1026971,1135253
1594387,1026867,1136593
1594137,1026684,1138372
1594062,1026708,1147874
1594194,1026912,1152223
1594372,1027348,1154099
1594571,1027702,1155823
1594219,1028305,1157956
1594109,1028563,1159292
1594109,1028779,1160186
1594257,1029108,1161057
1594385,1029161,1162350
1594390,1029526,1163382
1594422,1029384,1163382
1594634,1029313,1163927
1594578,1029011,1164454
1594692,1029090,1164729
1594767,1028718,1164939
1594863,1028462,1164827
1594921,1028479,1164846
1594893,1028725,1164554
1594925,1029166,1164931
1595172,1029708,1164587
1595569,1030086,1164577
1595536,1030500,1164930
1595459,1030969,1165639
1595511,1031122,1166279
1595623,1031650,1167172
1595934,1031724,1167882
1595719,1032213,1169132
1595713,1032252,1169279
1595713,1032171,1170037
1595500,1031971,1170309
1595849,1031970,1171111
1595865,1031858,1172842
1595973,1031498,1174082
1595983,1031260,1174082
1596159,1031201,1173562
1596178,1031275,1173649
1595980,1030828,1172919
1596165,1030979,1172712
1596144,1030490,1171853
1595790,1030095,1171403
1595615,1029927,1170018
1595514,1029964,1169594
1595478,1029769,1169013
1595707,1029911,1169285
1595477,1029736,1169056
1595343,1029389,1169384
1595272,1029121,1168589
1595186,1029052,1168422
1595424,1028978,1168027
1594951,1029227,1168291
1594836,1029317,1167700
1594993,1029563,1168207
1594985,1029566,1168602
1595074,1029689,1169682
1595295,1030007,1171249
1594896,1030686,1171617
1595023,1031141,1172154
1595002,1031886,1171193
1595248,1032743,1170917
1594958,1033251,1170403
1595073,1033364,1170272
1595012,1033658,1170386
1594964,1034026,1170442
1595045,1034219,1170297
1595307,1034160,1170984
1595081,1033975,1171451
1595009,1033324,1172391
1595220,1032920,1172768
1595173,1032367,1173539
1595129,1032223,1173802
1595099,1032181,1176464
1594696,1032124,1177987
1594696,1032137,1190069
1594822,1032009,1180463
1594761,1031857,1176370
1594976,1031456,1175371
1594780,1030803,1174835
1594967,1030323,1174349
1594887,1029668,1174968
1594997,1029576,1174917
1595046,1029701,1175240
1595083,1029883,1175460
1595133,1030265,1175377
1595064,1030636,1176806
1595110,1031166,1178479
1595261,1031585,1176318
1595487,1032061,1174903
1595805,1032272,1175051
1595439,1032412,1174674
1595582,1032185,1174589
1595653,1032261,1173172
1595774,1032115,1172349
1595516,1032353,1171046
1595459,1032131,1171154
1595459,1032226,1171053
1595432,1032142,1171119
1595657,1032149,1171420
1595772,1032013,1173977
1595897,1031641,1174074
1595704,1031447,1175031
1596036,1032015,1176981
1595810,1032383,1173189
1596025,1032499,1170972
1596066,1032927,1169488
1596531,1033085,1168606
1596150,1033320,1168243
1596091,1033728,1168340
1596371,1034190,1168529
1596546,1034341,1168733
1596497,1034548,1169079
1596295,1034586,1169702
1596424,1033790,1170612
1596381,1033944,1170936
1596155,1033854,1170924
1596164,1033972,1170489
1595749,1033940,1170256
1595749,1033600,1170700
1595553,1033467,1170982
1595279,1033223,1171463
1595510,1033152,1171774
1595184,1032963,1172785
1595248,1032726,1172549
1594994,1032812,1170977
1595126,1032852,1170079
1595024,1032862,1169242
1595131,1032878,1169466
1595214,1032708,1169663
1594925,1032464,1170565
1594789,1032268,1170784
1595039,1032021,1171194
1595234,1031891,1170177
1595297,1031926,1169683
1595104,1032098,1168956
1595283,1032117,1168634
1595325,1032707,1168937
1595185,1032946,1169372
1595011,1033194,1169757
1594973,1033465,1171197
1594973,1033487,1172538
1594861,1033494,1174168
1595115,1033644,1174373
1595163,1033661,1178613
1595143,1033632,1178589
1595035,1033663,1190048
1594913,1033943,1182103
1594950,1034014,1182241
1595012,1033946,1183002
1595220,1034202,1182013
1595205,1034312,1186368
1594872,1034162,1187108
1594937,1034426,1185153
1595144,1034625,1180746
1595518,1035096,1177122
1595406,1035473,1174305
1595489,1035881,1174029
1595523,1036150,1172360
1595632,1036720,1172511
1595595,1037081,1170929
1595671,1037540,1170849
1595387,1037729,1169978
1595636,1037767,1170636
1595636,1037869,1169185
1595570,1038190,1169676
1595880,1038326,1168039
1595631,1038469,1169556
1595834,1038671,1168847
1595534,1038958,1169545
1595609,1039359,1171278
1595875,1039587,1170811
1595836,1039937,1171865
1596019,1040124,1172327
1596010,1040033,1173617
1596008,1040053,1174094
1595879,1039999,1180556
1596018,1039961,1177511
1596187,1040236,1177148
1596395,1040507,1174986
1596526,1040774,1174678
1596596,1040920,1173751
1596199,1041173,1173500
1596369,1041211,1172554
1596349,1041363,1172973
1596418,1041519,1172127
1596418,1041366,1173806
1596216,1041525,1174087
1596425,1041307,1174426
1596198,1041045,1176571
1596247,1040633,1175045
1596356,1040192,1173205
1595628,1039396,1171205
1595400,1039021,1170825
1595326,1038666,1170057
1595370,1038631,1170540
1595240,1038451,1170521
1595094,1038417,1171137
1595122,1038515,1171536
1595230,1038497,1172450
1595263,1038529,1172461
1595343,1038025,1173115
1595272,1037545,1173139
1595285,1036476,1173360
1595245,1035651,1172711
1595377,1035100,1172133
1595381,1034535,1170201
1595142,1034111,1169746
1595142,1033837,1167799
1595056,1033549,1167437
1595102,1033262,1166269
1595190,1033382,1166060
1595192,1033240,1166128
1595345,1032767,1167138
1594960,1032410,1167761
1594814,1032028,1170610
1594934,1032013,1171725
1595020,1031726,1172445
1595228,1031940,1172986
1595004,1031974,1173225
1594968,1032105,1172147
1594579,1032363,1171153
1594734,1032568,1169750
1595009,1032676,1168830
1595325,1032914,1167914
1595281,1032957,1167587
1595054,1033163,1167975
1595088,1033651,1168459
1595606,1034252,1168734
1595381,1034964,1169093
1595027,1035845,1169260
1595027,1036239,1169551
1595026,1036758,1170509
1595002,1037073,1170046
1595269,1037593,1169457
1595272,1037829,1168760
1595423,1037878,1168093
1595207,1038073,1167195
1595472,1038160,1166452
1595368,1038101,1167155
1595465,1038005,1166426
1595528,1037826,1166401
1595423,1037601,1165936
1595362,1037858,1165839
1595536,1038034,1165928
1595709,1038190,1165759
1596174,1038466,1164886
1595721,1038821,1164210
1596025,1038858,1163744
1595647,1039240,1163548
1596000,1039595,1163603
1596201,1040010,1163881
1595814,1040232,1164196
1595814,1040358,1165238
1595932,1040392,1166287
1596089,1040912,1167612
1596120,1041244,1168771
1596223,1041245,1169553
1596360,1040921,1170731
1596036,1040382,1171430
1595883,1040167,1172198
1595729,1039458,1171740
1595566,1039372,1171272
1595332,1038760,1170818
1595068,1038222,1170584
1594882,1037992,1170945
1594786,1037797,1172179
1594962,1037550,1177215
1595194,1037692,1195347
1595025,1037673,1197081
1594707,1037890,1198775
1594891,1038205,1198819
1595096,1038894,1199828
1595067,1039587,1192990
1594901,1039897,1192990
1594901,1040256,1189716
1594888,1040425,1184811
1594953,1040829,1184857
1594899,1041080,1178000
1594931,1041319,1175531
1595005,1041430,1173405
1594753,1041811,1172095
1594871,1041719,1170155
1594831,1041675,1168935
1594971,1041702,1167154
1595028,1041541,1166210
1594758,1041412,1165101
1594656,1041508,1164812
1594534,1041589,1164679
1595155,1041724,1165308
1594694,1042211,1166153
1594899,1043559,1167714
1594856,1044391,1168901
1595134,1044498,1170548
1595508,1044869,1171788
1595104,1045176,1172905
1595088,1045027,1173132
1595020,1045063,1171425
1595088,1044868,1172444
1595329,1044619,1167921
1595504,1044449,1165553
1595330,1043905,1163694
1595393,1043699,1161833
1595382,1043474,1159841
1595647,1043265,1157432
1596032,1043852,1152747
1595978,1044383,1149148
1595921,1044519,1146375
1596179,1044439,1144690
1595958,1044055,1143796
1596235,1043715,1144417
1596239,1043666,1145300
1596155,1043804,1146987
1596040,1043725,1148020
1596124,1043419,1149472
1596246,1043001,1151092
1596193,1042909,1153207
1596042,1042636,1153521
1595829,1042253,1153785
1595495,1042222,1154026
1595728,1042239,1154422
1595651,1042219,1155570
1595818,1042423,1156214
1595542,1042521,1157305
1595369,1042450,1157868
1595105,1042467,1159114
1595339,1042823,1159967
1595250,1043330,1161446
1594973,1043593,1162559
1594973,1043750,1164208
1594852,1043934,1165300
1594801,1044339,1166899
1594851,1044467,1167848
1595178,1044451,1168486
1595290,1044240,1169567
1595044,1044412,1171074
1595022,1044690,1172980
1595193,1044737,1172049
1595024,1044913,1171864
1594984,1044812,1171668
1594764,1044820,1171225
1594880,1044879,1170823
1594988,1044988,1170694
1595051,1044920,1170434
1595426,1045261,1170301
1595214,1045153,1170636
1594889,1045073,1170818
1595071,1045158,1171261
1595052,1045172,1171683
1595240,1045409,1171495
1594864,1045563,1171863
1594864,1045566,1172362
1594829,1045706,1173164
1594796,1045743,1175722
1594913,1045919,1182837
1595168,1045756,1189510
1595032,1045846,1193937
1594865,1045550,1195343
1595065,1045728,1191932
1595178,1045717,1185610
1595243,1045843,1182097
1595144,1045927,1176310
1595476,1046172,1173251
1596139,1046948,1169398
1595740,1047355,1167297
1595859,1047464,1166952
1595963,1047829,1165132
1595980,1047606,1165184
1595808,1047603,1164974
1595689,1047887,1167567
1595358,1048003,1165978
1595518,1047699,1165534
1595634,1047831,1163991
1595803,1047643,1163113
1595616,1047505,1162442
1595407,1046883,1162634
1594956,1046361,1162714
1594713,1046105,1163599
1594829,1045750,1163825
1595066,1045573,1165986
1594787,1045234,1166746
1594559,1045041,1168066
1594512,1045134,1169055
1594551,1045148,1170625
1594785,1045519,1171708
1594343,1045893,1172406
1594009,1045984,1175676
1594009,1045851,1174062
1594063,1045916,1174433
1594213,1045934,1172264
1593833,1045972,1172542
1594146,1045748,1170891
1594246,1045728,1170974
1594503,1045909,1169015
1594337,1046099,1169153
1594233,1045889,1167905
1594174,1046001,1169233
1594146,1046399,1168735
1594179,1046324,1169290
1594059,1046472,1168942
1593993,1046423,1170124
1594059,1046389,1170767
1594501,1046211,1171880
1594120,1046504,1171845
1594037,1046280,1178114
1594138,1046012,1173929
1594431,1046149,1179320
1594293,1046489,1178701
1594329,1046496,1185195
1594309,1046609,1192596
1594170,1046786,1185633
1594269,1046961,1190421
1594524,1047137,1186413
1594639,1047379,1193208
1594663,1047655,1195092
1594300,1048036,1197554
1594433,1048373,1195879
1594733,1048697,1197818
1594568,1049135,1195269
1594521,1049747,1187637
1594521,1050049,1178895
1594571,1050369,1174646
1594686,1050242,1172662
1594798,1050747,1172605
1594891,1050653,1172058
1594847,1050548,1172759
1594645,1050589,1171651
1594710,1050067,1172716
1594382,1049880,1172040
1594310,1049238,1172510
1594159,1048701,1171662
1594006,1048057,1170809
1593682,1047484,1171499
1593219,1047323,1172389
1593470,1046918,1181049
1593880,1047310,1187427
1593652,1047402,1194922
1593509,1047468,1195823
1593369,1047494,1194121
1593612,1047615,1191854
1593482,1047776,1191290
1593349,1047988,1191058
1593041,1048183,1189063
1593041,1047865,1188307
1593106,1047873,1186036
1593052,1047936,1185197
1593358,1048237,1185875
1593099,1048096,1186124
1593084,1047971,1186094
1593218,1048383,1186172
1593262,1048807,1188408
1593301,1048994,1190525
1593236,1049023,1192584
1593150,1048894,1191482
1593183,1048658,1191548
1592792,1048659,1190828
1593117,1048640,1191002
1593140,1048500,1191442
1593471,1048415,1192247
1593124,1048297,1193777
1593011,1048108,1194756
1592895,1048164,1195747
1593111,1048343,1195834
1592985,1048823,1196049
1592943,1049169,1195696
1593178,1049733,1194606
1593292,1050007,1193582
1593250,1050009,1193643
1593591,1049910,1193993
1592968,1050071,1193599
1593011,1049982,1191489
1593236,1050101,1189774
1593259,1049945,1189777
1593272,1050203,1189147
1593352,1050044,1188657
1593184,1049995,1187204
1593165,1050009,1187704
1593254,1050108,1186452
1593480,1050041,1184979
1593771,1050263,1185036
1593983,1050234,1184822
1593981,1050258,1184070
1593963,1050531,1184564
1593826,1050789,1184757
1593865,1051064,1186997
1593887,1050705,1190837
1594231,1050427,1195894
1594249,1050395,1192327
1593978,1050442,1183523
1593712,1050493,1178537
1593995,1050213,1175956
1593953,1049963,1183446
1593811,1049656,1186296
1593696,1049239,1192953
1593682,1048631,1193523
1593226,1048104,1193612
1593301,1047827,1192200
1593125,1047686,1190132
1593383,1047493,1187635
1592810,1047254,1185974
1592649,1047067,1183976
1592622,1047080,1183871
1592662,1046993,1184461
1592455,1047263,1186231
1592378,1047270,1189938
1592115,1047086,1193655
1592115,1047004,1199792
1592348,1047063,1204791
1592533,1047440,1207760
1592576,1047420,1205906
1592329,1047164,1203975
1592071,1047018,1199417
1592084,1047248,1193911
1592002,1047064,1188241
1592218,1047319,1186629
1592309,1047114,1185790
1592125,1046819,1187500
1591849,1046496,1187323
1592032,1046482,1186503
1592137,1046346,1185457
1592361,1046444,1184472
1592324,1046052,1185249
1592146,1045743,1185318
1591893,1045651,1187142
1592282,1045772,1187442
1591960,1045961,1188320
1592107,1046274,1187593
1592332,1046359,1187953
1592373,1046403,1189313
1592295,1046676,1190321
1591976,1046831,1190207
1591935,1046803,1193187
1591865,1046711,1196742
1592109,1046807,1200257
1592007,1047029,1202175
1592233,1047112,1205324
1592093,1047163,1208790
1592110,1047326,1208754
1592241,1047388,1210123
1592428,1047580,1208344
1592467,1047895,1203183
1592602,1048036,1199548
1592287,1048238,1190201
1592658,1048734,1186427
1592817,1049027,1185223
1592750,1049660,1184823
1592367,1049921,1185059
1592367,1050272,1186249
1592534,1050497,1194994
1592693,1050654,1196956
1592817,1050615,1200378
1592724,1050729,1202657
1592734,1050842,1205474
1592845,1051096,1207530
1592897,1051022,1211571
1592927,1050881,1210744
1592954,1051136,1214915
1593224,1050996,1212476
1593470,1051401,1213011
1593663,1052112,1209301
1593890,1052752,1210204
1593913,1053344,1207333
1593305,1052848,1205999
1593098,1053332,1204208
1593076,1053458,1203715
1592733,1053837,1203766
1592441,1054262,1200660
1592461,1054599,1200326
1592560,1054633,1196799
1592522,1054823,1195313
1592416,1054955,1192420
1592369,1054846,1191404
1592135,1054713,1192766
1592409,1054767,1195701
1592012,1054775,1198339
1592741,1054915,1201009
1592858,1054898,1203001
1592790,1054536,1207878
1592529,1054595,1208151
1592754,1054742,1206919
1592700,1054833,1206946
1592507,1055010,1208988
1592507,1055027,1206464
1592315,1054938,1207745
1592498,1054805,1205918
1592534,1054935,1199280
1592526,1054854,1187808
1592502,1054467,1186498
1592483,1054349,1187461
1592405,1054473,1188261
1592466,1054371,1187522
1592419,1054360,1186666
1592452,1054302,1186075
1592292,1054056,1185362
1592182,1053770,1189525
1592590,1053840,1191563
1592673,1053674,1195991
1592816,1053754,1196440
1592959,1053588,1195228
1593028,1053658,1191948
1592971,1053695,1191427
1593004,1054102,1190365
1593305,1054237,1188136
1592967,1054764,1186945
1592690,1054810,1188028
1592690,1054859,1189651
1592759,1054747,1193039
1593055,1054925,1192114
1593082,1054687,1191120
1593171,1054507,1189912
1593289,1054287,1186293
1593369,1054622,1185252
1593466,1054942,1185230
1593642,1054987,1186206
1593532,1055284,1186295
1593748,1055239,1186436
1593423,1055130,1186138
1593612,1055157,1185664
1593707,1055213,1185270
1593986,1055257,1185949
1594178,1055384,1185879
1594336,1055387,1186375
1594236,1055395,1185317
1594243,1055554,1193473
1594264,1055699,1189782
1594088,1055771,1191721
1594039,1056089,1191317
1594039,1056096,1197578
1594345,1056105,1198768
1594404,1055967,1200436
1594688,1056289,1199163
1594684,1056436,1198506
1594708,1056653,1202127
1594736,1056766,1199358
1595010,1056827,1202878
1594758,1057032,1200407
1595018,1057040,1203337
1594829,1057048,1205027
1594914,1056826,1209256
1594832,1057004,1210555
1595050,1056786,1214691
1594972,1056678,1214994
1595350,1056344,1215782
1595198,1056149,1217353
1594952,1055359,1221248
1594371,1055101,1220644
1594478,1054760,1221083
1594093,1054552,1222031
1593337,1054599,1222531
1593337,1054441,1222396
1593262,1054476,1221760
1593324,1054231,1220227
1593244,1054379,1216412
1593257,1054403,1214663
1593193,1054262,1215456
1593279,1054457,1216905
1593045,1054858,1217225
1593078,1055095,1221006
1593100,1055291,1221664
1593165,1055648,1221692
1592995,1055406,1221088
1592804,1054997,1220853
1593143,1054773,1220670
1593165,1054543,1221594
1593385,1054408,1222022
1593477,1054231,1221711
1593523,1054067,1221250
1593459,1053969,1220634
1593119,1054134,1221211
1593190,1054323,1222228
1593007,1054398,1223164
1592912,1054539,1222827
1592912,1054521,1221746
1592896,1054142,1221796
1592884,1053982,1221893
1593121,1054067,1221412
1592890,1053997,1221553
1592893,1054065,1221632
1592700,1054321,1220283
1592589,1054645,1219807
1592847,1054636,1220787
1592648,1054594,1220619
1592751,1054590,1220744
1592348,1054502,1220527
1592219,1054713,1220687
1592254,1054860,1220623
1592525,1054961,1221085
1592290,1055131,1221303
1592360,1055370,1221200
1591826,1055526,1221103
1591630,1055925,1221240
1591261,1056317,1222916
1591291,1056749,1222110
1590841,1056800,1219500
1590841,1056733,1216953
1590986,1056346,1215993
1590942,1056281,1216033
1591043,1056208,1216204
1590704,1056151,1211462
1590658,1056025,1208938
1590694,1056154,1205214
1590743,1056232,1202212
1590539,1055961,1195569
1590554,1055976,1192519
1590572,1055629,1192415
1590513,1055546,1193081
1590474,1055952,1191836
1590620,1055942,1191399
1590726,1056173,1190673
1590814,1056403,1189145
1590998,1056629,1189030
1591059,1056722,1189126
1590950,1057022,1190652
1590960,1057177,1191788
1591102,1057473,1194621
1590728,1057647,1198049
1590728,1057494,1203064
1590610,1057313,1207076
1590757,1056970,1208634
1590833,1056586,1209590
1590825,1056024,1216236
1590568,1055418,1220665
1590163,1054699,1220766
1589908,1054829,1222551
1589975,1054737,1223344
1589718,1054576,1223411
1589494,1054139,1223241
1589384,1053774,1222988
1589266,1053572,1222205
1589553,1053223,1222432
1589475,1052800,1222484
1589809,1052580,1222235
1589898,1052050,1222292
1589829,1051316,1221390
1589848,1050800,1221313
1589705,1050263,1221796
1589702,1050168,1222675
1589310,1050019,1223317
1589310,1049807,1222811
1589313,1049602,1222613
1589282,1049133,1222877
1589388,1048624,1223946
1589644,1047998,1224007
1589713,1047400,1223885
1589433,1046556,1224353
1589427,1046566,1223505
1589335,1046394,1223775
1589447,1046708,1224542
1589259,1046784,1224137
1589290,1046730,1224070
1589200,1046718,1224495
1589436,1046951,1224010
1589590,1047165,1224490
1589751,1047523,1224365
1589601,1047941,1224759
1589528,1048140,1224952
1589628,1048584,1224785
1589727,1048537,1224442
1589434,1048638,1225572
1589618,1048320,1225065
1589493,1047466,1225814
1589493,1046934,1224279
1589542,1046452,1224203
1589617,1046299,1224355
1589777,1046228,1224080
1589707,1046181,1222845
1589648,1046168,1221877
1589842,1045957,1224135
1589771,1045918,1222226
1589863,1045738,1221226
1589892,1045627,1222385
1589945,1045221,1222269
1589890,1044943,1222325
1590057,1044739,1223255
1590008,1044570,1217447
1590447,1044333,1206819
1590287,1044342,1196032
1590190,1044402,1190834
1590483,1044712,1190798
1590268,1045240,1190440
1590585,1045579,1188748
1590454,1046028,1188506
1590177,1046181,1188949
1590177,1046079,1192663
1590422,1046436,1192780
1590227,1046533,1198655
1590439,1046581,1190714
1590353,1046567,1189018
1590406,1046739,1191616
1590542,1046880,1192031
1590663,1046841,1192181
1590580,1047280,1191872
1590508,1047679,1191332
1590624,1047610,1191089
1590516,1047643,1188872
1590303,1047696,1188424
1590268,1047577,1187868
1590314,1046952,1187082
1589735,1046197,1188073
1589465,1045157,1188703
1589640,1044720,1187279
1589533,1044116,1186810
1589370,1043521,1190525
1589089,1043171,1193494
1589543,1042994,1197954
1589115,1042789,1200780
1588997,1042457,1204379
1589072,1042229,1202746
1589141,1042205,1201963
1588557,1042664,1203773
1589090,1042503,1210252
1589002,1042201,1213066
1589076,1041950,1216372
1588867,1041703,1223496
1589229,1041389,1221965
1589183,1041317,1221053
1589016,1041372,1221804
1589338,1041132,1222761
1589397,1041125,1223154
1589327,1041173,1222389
1589243,1041157,1222207
1589048,1040880,1223046
1588921,1040193,1222236
1588689,1040349,1222081
1589008,1040550,1222613
1588949,1040768,1222570
1588928,1040785,1220167
1588630,1041023,1219292
1588950,1040763,1214690
1588723,1040328,1215734
1589044,1039814,1215350
1588959,1039304,1214839
1588883,1038537,1215677
1588833,1038381,1213741
1588983,1038042,1216233
1589151,1037680,1214605
1589582,1037370,1215332
1589328,1037362,1213815
1589304,1037092,1218999
1589225,1037101,1219328
1589623,1036874,1220871
1589554,1036824,1221965
1589357,1036454,1223949
1589357,1036073,1223287
1589202,1035921,1222676
1589245,1035859,1222111
1589257,1035710,1221172
1589589,1035518,1221026
1589613,1035008,1222155
1589840,1034845,1222280
1589808,1034790,1223178
1589817,1034607,1222170
1589928,1034370,1223199
1589922,1034186,1222353
1589856,1033766,1222291
1589745,1033583,1222211
1589780,1033614,1222312
1589952,1033515,1222146
1590500,1032922,1223278
1590384,1032905,1220128
1590391,1034349,1223202
1590591,1034749,1224631
1590766,1035325,1222592
1590769,1035652,1224202
1590818,1036032,1219863
1590507,1036258,1220339
1590152,1036483,1216031
1590247,1036538,1214954
1590035,1036543,1211713
1590011,1036220,1212702
1589598,1036107,1210302
1589706,1035939,1212469
1589409,1035422,1209744
1589316,1035240,1212329
1589274,1035157,1208721
1589564,1035034,1211455
1589475,1035004,1205105
1589387,1035265,1201682
1589302,1035262,1199752
1589508,1035449,1197504
1589263,1035486,1195343
1589293,1035736,1194443
1588878,1035608,1195154
1588878,1035265,1193272
1589083,1035103,1196864
1588893,1035069,1197799
1589024,1034912,1200932
1588964,1034974,1204725
1588973,1034706,1207519
1588849,1034693,1211779
1588896,1034661,1216808
1588756,1034561,1219106
1589046,1034497,1220694
1588916,1034160,1220859
1588806,1033631,1221224
1588615,1033172,1221099
1588779,1032385,1222164
1589019,1031737,1220642
1589144,1030787,1219540
1588747,1029704,1218478
1589024,1028266,1220277
1588716,1027223,1221681
1588645,1025819,1222216
1588885,1025232,1223811
1588862,1024744,1224021
1588862,1024622,1225065
1588699,1024756,1224778
1588706,1025025,1225199
1588769,1025548,1223323
1588801,1025548,1222231
1588804,1025604,1219918
1588929,1026686,1220058
1588848,1026904,1219604
1588864,1026851,1222057
1588917,1027000,1219314
1589121,1027300,1220119
1588986,1027114,1216887
1589101,1026971,1216928
1589242,1027010,1214567
1589492,1027001,1214357
1589681,1026931,1214391
1589660,1026728,1211642
1589688,1026677,1207865
1589616,1027019,1206085
1589557,1027260,1205110
1589945,1027328,1202496
1589304,1026997,1201168
1589304,1026465,1199335
1589448,1026106,1197962
1589523,1025886,1197840
1589641,1025620,1197297
1589660,1025391,1196784
1589811,1025268,1194712
1589813,1026020,1193427
1589919,1026932,1192604
1590227,1027313,1193070
1590096,1028051,1194318
1590265,1028480,1195763
1590243,1028814,1198279
1590133,1029425,1199852
1590289,1030273,1199845
1590506,1030907,1198602
1590744,1031040,1197500
1590795,1031024,1194775
1590587,1030593,1191612
1590922,1030234,1190834
1591122,1030161,1190670
1591117,1030170,1190615
1590738,1030118,1190990
1590738,1029988,1191102
1590804,1029987,1190761
1590860,1030048,1189896
1590889,1030029,1189701
1590922,1029979,1189387
1591070,1029810,1189074
1590559,1029848,1189108
1590425,1029797,1189246
1590328,1029798,1189481
1590403,1029674,1189437
1590160,1029724,1189249
1590216,1029553,1191632
1589950,1029886,1194963
1589839,1030193,1199198
1590104,1030327,1204325
1590481,1030638,1208493
1590413,1030896,1211047
1590432,1030979,1211147
1590375,1031224,1209881
1590303,1031615,1209829
1590229,1031967,1209265
1590413,1032241,1208711
1590039,1032169,1210115
1590039,1031908,1210022
1590251,1031841,1212428
1590057,1031489,1214213
1590110,1031241,1218209
1590175,1030840,1221713
1590217,1030436,1224312
1590238,1030110,1225387
1590033,1029944,1225992
1590060,1029813,1224656
1590227,1029661,1224782
1590249,1029442,1223739
1590035,1029269,1223862
1589994,1029114,1224022
1590046,1028817,1224138
1590282,1028401,1224004
1590439,1027984,1223185
1590161,1027418,1223044
1590396,1026874,1223748
1590154,1026944,1224444
1590242,1026654,1223408
1589995,1026805,1223509
1590047,1026630,1223989
1590047,1026694,1223920
1590148,1026813,1225140
1590245,1026801,1224922
1590281,1026520,1224376
1590316,1025981,1223698
1590331,1025342,1224185
1590207,1025106,1226777
1590564,1024306,1224660
1590479,1023779,1224010
1590641,1023567,1224412
1590793,1023447,1224652
1590566,1023230,1224036
1590533,1023408,1223645
1590672,1023725,1224563
1590687,1024132,1224269
1591083,1024973,1223425
1591128,1025617,1223399
1591028,1026128,1223758
1591219,1026650,1225044
1591257,1027163,1225238
1591265,1027603,1223218
1590945,1028297,1223581
1590945,1028541,1223370
1591077,1028973,1224442
1591111,1028828,1224897
1591414,1029131,1225489
1591589,1029210,1225623
1591711,1029090,1226167
1591801,1029046,1225853
1591351,1029236,1226027
1591483,1029449,1226544
1591518,1029423,1226806
1591677,1029353,1226751
1591398,1029374,1225983
1591533,1029035,1225817
1591194,1028672,1225935
1591314,1028298,1224690
1591381,1028077,1224641
1591655,1027647,1224237
1591143,1027284,1225428
1590953,1026783,1226155
1590945,1026417,1225432
1590994,1026339,1225014
1590796,1026354,1223826
1590705,1026421,1223392
1590225,1026486,1223163
1590225,1026474,1224140
1590393,1026788,1225094
1590463,1027082,1225741
1590564,1027197,1225933
1590547,1026884,1226351
1590579,1026962,1227345
1590383,1026829,1232910
1590509,1026847,1230111
1590665,1027053,1229541
1590660,1026960,1229109
1590472,1027268,1229088
1590550,1027244,1229423
1590543,1027493,1229605
1590826,1027617,1229954
1590913,1027787,1229796
1590883,1027934,1229679
1590621,1027902,1229884
1590688,1027391,1230113
1590324,1027237,1231747
1590612,1026940,1230980
1590394,1026795,1230267
1590127,1026450,1229755
1590127,1026418,1230531
1590168,1026504,1228130
1590289,1026517,1229774
1590287,1026572,1230202
1590469,1026540,1230402
1590259,1026658,1233072
1590422,1027123,1230675
1590454,1027481,1231236
1590497,1028079,1231283
1590255,1028038,1231561
1590840,1028228,1230830
1591018,1028445,1230746
1591060,1029151,1230861
1591188,1029090,1230685
1591284,1028623,1230645
1591085,1028450,1230297
1591410,1028200,1230243
1591381,1028000,1230829
1591078,1027638,1231009
1591005,1027289,1230271
1591272,1027053,1229486
1591189,1026760,1229282
1591254,1027020,1229003
1591371,1026954,1228849
1591334,1027078,1229524
1591331,1027528,1229282
1591505,1028018,1227430
1591486,1028409,1228297
1591397,1028720,1228799
1591124,1028882,1228817
1591001,1028631,1229345
1590817,1028555,1229408
1590594,1028381,1229177
1590406,1028326,1228912
1590296,1027990,1228811
1590296,1027860,1228360
1590161,1027746,1229297
1589992,1027701,1228745
1590081,1027772,1228955
1590058,1027600,1228700
1590028,1027683,1229175
1590079,1028102,1228996
1590050,1028325,1228957
1590062,1028706,1228957
1590005,1028860,1227773
1590073,1029128,1229160
1589971,1029314,1228507
1590050,1029613,1228832
1589919,1029930,1228365
1590353,1029948,1228695
1590352,1030207,1227529
1590182,1030304,1227806
1590223,1030236,1227914
1590324,1030309,1228272
1590209,1030321,1228682
1589987,1030567,1228231
1589762,1030546,1227911
1589762,1030330,1227755
1589902,1030195,1228036
1589802,1029937,1228257
1589948,1029670,1227361
1589638,1029278,1227381
1589631,1028683,1227808
1589917,1028658,1228122
1589766,1028630,1227964
1589574,1028289,1227718
1589779,1028525,1228744
1589766,1028612,1228480
1589727,1028672,1227872
1589688,1029001,1228815
1589794,1028998,1228842
1590055,1029217,1229509
1590010,1029070,1229843
1589951,1028735,1229391
1590316,1028720,1230317
1590058,1029030,1230814
1590168,1028947,1230269
1590268,1029057,1230503
1590100,1028872,1230879
1590100,1028716,1230755
1590081,1028657,1231350
1590112,1028706,1231629
1590343,1028466,1231370
1590320,1028254,1230742
1590182,1028016,1231368
1590101,1028103,1232055
1590423,1028121,1231780
1590503,1027990,1231891
1590619,1028024,1232459
1590598,1027754,1232307
1590554,1026785,1232668
1590527,1025956,1233182
1590751,1025265,1233629
1590962,1024846,1233845
1590911,1024242,1233506
1590722,1023901,1233319
1590949,1023422,1233876
1590739,1023633,1234742
1590938,1023620,1235643
1590339,1023934,1236079
1589968,1024005,1236823
1589968,1023984,1237150
1589930,1024160,1238432
1589805,1024382,1239372
1589758,1024342,1240731
1589683,1024616,1241187
1589417,1024773,1242007
1589258,1025381,1243097
1589163,1025689,1246219
1589278,1025672,1246219
1589143,1025845,1246323
1589178,1025738,1247240
1588997,1025775,1248307
1588986,1025519,1250605
1588940,1025691,1251921
1589206,1025638,1253329
1589443,1025627,1254337
1589153,1025534,1255236
1589219,1025389,1256558
1589334,1025469,1256854
1589164,1025587,1257909
1589146,1025699,1260091
1589016,1025600,1260526
1589016,1025428,1261969
1589016,1025825,1263497
1589008,1025731,1263948
1589106,1026091,1264858
1588925,1025827,1266219
1588931,1025744,1266560
1588890,1025772,1267891
1588684,1026066,1267965
1588713,1026063,1268777
1588733,1026081,1270736
1588787,1026169,1271236
1588960,1026053,1272495
1588945,1025764,1272982
1588667,1025492,1273206
1589253,1026355,1273467
1588924,1027595,1275398
1589018,1028669,1275163
1589398,1029267,1276557
1589490,1029581,1276862
1589347,1030026,1277810
1589539,1030258,1278430
1589194,1030704,1279272
1589026,1030815,1279283
1589256,1030912,1280281
1589354,1031193,1280587
1589515,1031618,1282531
1589583,1031873,1282272
1589439,1032255,1283034
1589630,1032632,1282545
1589609,1033087,1283669
1589787,1033369,1283938
1590161,1033602,1284109
1590208,1033615,1284699
1590181,1033541,1285145
1590278,1033667,1286188
1590107,1033699,1286301
1590416,1033860,1286954
1590182,1033780,1285998
1590034,1033039,1287717
1590034,1032661,1286642
1590135,1031961,1287355
1590280,1031476,1287190
1590143,1031046,1288167
1590109,1030450,1287366
1589633,1030177,1287925
1589229,1029774,1288621
1589251,1029858,1289254
1589166,1030092,1289301
1588851,1030137,1289140
1588922,1029742,1288424
1588539,1029340,1289093
1588830,1029042,1288932
1588825,1028583,1288565
1589249,1028302,1288092
1588914,1027839,1287580
1588962,1027258,1287169
1588689,1026993,1286251
1588905,1026774,1286430
1588610,1026719,1286290
1588537,1026711,1286846
1588537,1026374,1285621
1588222,1026418,1288445
1588308,1026424,1287050
1588498,1026660,1287094
1588329,1027006,1287417
1588383,1026824,1287096
1588486,1027054,1286359
1588352,1027245,1286766
1588198,1027209,1286753
1588239,1027146,1287290
1588289,1026788,1287366
1588107,1026267,1287294
1587940,1025859,1287163
1588099,1025849,1287356
1588185,1025836,1288057
1588190,1025742,1288645
1588247,1025475,1288626
1588160,1025332,1290780
1588401,1025564,1290860
1588204,1026027,1290501
1588409,1026453,1290778
1587835,1027245,1290701
1587981,1027630,1291911
1587981,1028051,1291170
1588114,1028035,1291503
1588244,1028210,1292036
1588194,1028114,1292837
1588186,1027569,1292686
1588213,1027095,1292984
1588149,1027207,1293443
1588221,1026825,1293632
1588349,1026657,1293323
1588550,1026676,1293586
1588492,1026947,1293238
1588541,1027541,1294160
1588361,1028204,1294022
1588697,1029152,1294824
1588591,1029575,1295753
1589107,1030044,1295853
1589020,1030565,1295717
1588907,1030918,1295735
1588991,1030995,1296853
1589297,1031092,1296980
1589152,1031022,1296418
1589142,1030952,1295789
1588991,1030374,1296490
1588991,1029889,1296497
1589214,1029622,1297372
1589255,1029689,1297296
1589312,1029736,1297776
1589163,1029275,1298904
1589202,1028917,1298528
1588693,1028916,1298902
1588540,1028326,1299855
1588317,1027643,1298868
1588378,1027160,1299778
1588295,1026088,1300122
1587886,1025173,1300971
1587551,1024723,1301214
1587628,1024304,1301464
1587855,1023613,1302111
1587843,1022870,1301750
1587512,1021767,1302508
1587796,1020367,1301980
1587492,1019702,1302655
1587671,1019031,1303331
1587330,1019223,1304177
1587033,1019052,1304983
1587033,1019203,1305591
1587069,1019623,1305734
1587270,1019849,1306455
1587238,1020564,1306765
1587353,1021027,1308399
1587180,1021232,1307044
1587180,1021290,1307604
1587059,1020855,1306900
1587066,1020113,1312926
1586820,1019713,1309043
1586994,1019051,1308662
1586646,1018400,1307870
1586663,1017985,1308796
1586645,1017763,1308406
1586741,1017624,1309638
1586640,1017780,1310738
1586574,1018180,1309548
1586643,1018466,1310184
1586683,1018663,1309557
1586785,1018956,1311399
1586600,1019095,1311070
1586299,1018854,1311578
1586290,1018870,1311089
1586290,1019119,1312379
1586476,1019252,1311038
1586556,1019581,1311497
1586587,1019530,1311258
1586618,1019424,1311879
1586476,1019580,1311240
1586704,1019827,1311213
1586810,1019725,1311750
1586916,1020089,1312477
1586802,1020055,1312141
1586897,1020128,1313631
1586703,1020021,1313010
1586808,1020255,1314362
1586899,1020139,1315120
1587270,1020374,1314077
1587137,1020401,1314796
1587469,1020580,1314947
1587191,1020845,1314759
1587190,1021300,1314741
1587284,1021611,1315733
1587068,1022125,1315810
1587068,1022365,1315828
1586961,1022514,1315428
1587306,1022789,1315916
1587175,1023331,1316493
1587088,1023281,1317708
1587264,1022988,1317348
1586917,1022524,1317654
1586672,1022122,1317952
1586660,1021734,1318990
1586433,1021144,1319114
1586145,1020773,1319516
1586182,1020101,1318789
1585734,1019904,1318548
1585720,1019331,1318146
1585652,1018837,1319300
1586083,1018093,1319389
1585774,1017549,1319033
1585845,1016574,1320117
1585658,1016025,1319374
1585787,1015429,1319631
1585588,1015043,1319491
1585386,1014885,1320371
1585386,1014864,1319560
1584939,1014796,1320268
1585095,1014667,1320103
1585060,1014343,1320030
1585234,1013672,1318812
1585199,1012938,1318432
1585154,1012142,1318653
1584977,1012125,1319505
1584882,1012135,1318585
1585020,1012263,1318706
1585116,1012268,1317388
1584970,1012434,1316451
1584803,1012310,1314734
1584804,1012513,1313653
1584719,1012326,1313139
1584917,1012278,1312147
1585267,1012043,1310645
1585025,1011999,1310570
1585089,1011810,1309342
1584728,1012131,1309491
1585319,1012384,1308985
1584828,1012940,1308885
1584741,1013024,1308738
1584741,1013382,1308121
1584262,1013667,1308086
1584693,1014359,1307586
1584728,1014718,1307314
1584893,1015167,1306958
1584900,1015480,1306045
1584902,1016308,1305068
1584946,1016825,1304355
1585253,1017092,1303613
1585124,1017577,1303039
1585128,1017790,1303085
1584960,1018338,1302785
1585119,1019149,1303109
1585243,1019650,1302776
1585790,1019982,1302442
1585610,1020180,1302291
1585690,1020149,1302513
1585730,1020171,1302594
1585890,1020130,1302155
1585838,1020230,1302334
1585772,1020451,1301849
1585340,1020484,1302850
1585340,1020751,1302404
1585760,1020880,1302275
1585705,1021005,1301825
1585922,1021265,1302558
1585528,1021325,1302748
1585905,1021341,1303157
1586067,1021380,1302738
1586186,1021204,1303312
1585995,1021089,1303826
1586094,1020636,1303563
1585860,1020010,1303049
1585594,1019402,1302651
1585590,1018981,1302877
1585520,1018594,1303161
1585110,1018456,1304630
1585235,1018280,1303304
1584967,1018006,1304198
1585037,1017928,1303483
1584992,1018232,1304315
1584972,1017884,1304670
1584685,1017960,1305033
1584300,1017719,1305254
1584300,1017817,1305856
1584302,1017643,1305270
1584427,1017717,1305451
1584309,1017971,1305096
1584382,1018079,1305743
1584277,1018038,1306062
1584464,1018026,1306729
1584276,1018240,1306219
1584370,1017931,1305656
1584449,1017868,1305497
1584351,1017652,1305711
1584291,1017530,1305122
1584262,1018024,1306598
1584233,1018223,1306098
1584530,1018602,1306213
1584387,1018900,1305575
1584248,1019260,1304712
1584253,1019471,1304829
1584486,1019952,1304677
1584358,1020091,1305176
1584312,1020562,1304944
1584093,1020817,1304113
1584093,1021204,1303630
1584256,1021588,1303326
1583875,1022044,1303274
1584479,1022278,1302991
1584166,1022380,1302109
1584265,1022292,1302083
1584057,1022539,1301449
1584262,1022465,1302156
1584387,1022244,1300862
1584632,1022231,1301057
1584571,1022088,1301601
1584369,1021893,1303623
1584247,1021860,1300525
1584431,1021883,1299028
1584534,1021806,1298731
1584960,1021963,1297518
1584802,1021999,1297879
1585023,1022007,1298433
1584753,1021859,1299212
1585187,1021851,1299559
1584911,1021963,1298930
1584898,1022020,1299340
1584898,1022034,1298439
1584793,1021939,1297353
1584903,1021924,1297227
1585078,1022144,1297707
1585420,1022352,1298082
1585178,1022327,1298315
1585374,1022565,1298058
1585272,1022919,1298204
1585620,1023078,1299139
1585541,1023366,1299833
1585584,1023482,1301933
1585511,1023607,1300472
1585428,1023359,1301336
1585623,1023624,1301026
1585773,1023556,1306479
1586151,1023444,1302597
1586141,1023111,1300328
1585973,1022676,1300133
1585903,1022274,1300938
1585779,1021829,1301163
1585763,1021390,1301382
1585404,1021184,1302472
1585053,1020767,1302645
1585053,1020531,1303392
1584572,1020553,1303814
1584739,1020625,1303900
1584576,1020636,1303903
1584689,1020528,1303555
1584611,1020673,1304236
1584507,1020983,1304234
1584542,1021518,1304582
1584570,1021698,1305685
1584576,1022082,1306058
1584784,1022207,1305989
1584475,1022030,1306366
1584408,1022198,1306784
1584395,1021833,1306481
1584724,1021738,1306842
1584829,1021437,1305560
1584617,1021321,1304472
1584705,1021119,1303572
1584556,1021612,1303272
1584845,1021896,1303614
1584848,1022729,1303701
1584583,1023291,1302206
1584583,1023513,1302257
1584538,1023546,1302419
1584706,1023805,1303093
1584737,1023811,1302164
1584276,1023737,1302502
1584643,1023757,1302176
1584538,1024202,1302248
1584562,1024561,1302615
1584687,1024458,1302183
1584857,1024468,1302314
1584806,1024307,1301834
1584637,1023913,1301334
1584519,1023804,1299282
1584742,1023664,1298376
1585005,1023355,1297195
1585290,1023142,1298559
1585303,1022846,1295439
1585345,1022642,1294185
1585443,1022485,1295206
1585392,1022663,1293920
1585261,1022811,1294130
1585135,1023001,1294348
1584903,1023139,1294191
1584903,1023444,1294851
1585174,1023734,1295365
1585206,1024114,1294961
1585540,1024204,1295716
1585600,1023934,1295440
1585236,1023704,1295654
1585731,1023539,1294930
1585760,1023320,1296085
1586094,1022917,1297076
1585909,1022567,1297895
1585938,1021984,1297929
1585669,1021628,1298484
1586075,1021519,1298553
1586191,1020893,1300931
1586740,1019973,1299926
1586346,1019228,1300525
1586471,1018573,1301251
1586404,1018359,1302015
1586578,1018401,1304872
1586540,1018890,1303865
1586507,1018985,1304828
1586245,1019259,1304773
1586245,1019666,1305504
1586428,1019776,1305026
1586440,1019946,1306102
1586319,1019954,1305384
1586389,1019454,1305293
1586265,1019158,1305630
1585860,1018771,1307744
1585669,1018529,1306774
1585538,1018414,1307349
1585563,1018554,1306409
1585437,1018705,1307621
1585294,1018482,1306600
1585365,1019064,1307504
1585411,1019325,1306779
1585371,1019769,1307542
1585744,1020090,1307768
1585582,1020537,1308076
1585732,1021038,1309096
1585583,1021509,1308674
1585726,1022163,1308535
1585475,1022824,1307767
1585473,1022939,1308034
1585473,1023041,1307271
1585621,1023216,1306835
1585707,1023389,1305739
1585663,1023564,1305317
1585687,1023611,1305094
1585445,1023467,1305218
1585701,1023257,1305018
1585463,1023048,1305086
1585501,1022304,1303241
1585511,1022044,1305113
1585489,1021672,1304660
1585392,1020971,1304988
1585204,1020561,1305265
1585402,1020562,1305899
1585536,1020190,1306002
1585627,1020284,1305554
1585663,1020167,1304844
1585609,1020501,1303993
1586068,1021554,1303089
1585838,1021823,1302150
1585912,1021856,1301951
1586398,1022097,1301343
1586149,1022514,1301255
1585712,1022504,1300295
1585917,1022577,1300888
1586017,1022289,1300402
1586164,1021572,1300836
1585940,1021153,1301527
1586056,1019887,1301998
1585835,1018792,1301553
1586134,1017837,1300728
1586123,1017183,1300941
1586671,1016407,1300572
1586251,1015581,1300887
1586443,1014765,1300427
1586326,1014129,1299720
1586477,1014036,1299750
1586332,1013721,1299490
1586480,1013780,1298929
1586079,1014171,1298908
1586079,1014713,1299475
1586287,1015358,1299464
1586314,1015949,1299260
1586652,1016107,1298220
1586542,1015775,1298707
1586550,1015348,1298782
1586432,1014754,1298388
1586338,1014327,1297718
1586058,1014163,1298510
1586063,1014041,1298586
1585908,1014369,1299324
1585707,1014414,1299538
1585289,1014903,1299115
1585408,1015141,1299194
1585382,1015088,1300262
1585387,1014941,1300286
1585386,1014847,1300607
1585396,1014811,1300687
1585229,1015104,1301903
1585410,1015331,1301258
1585219,1016158,1302219
1585078,1016916,1303818
1584902,1017349,1303870
1584902,1017800,1305046
1585104,1017583,1304114
1585057,1017709,1304270
1585304,1017631,1304130
1585394,1017646,1304617
1585378,1017865,1305053
1585143,1017910,1304950
1585264,1017530,1304520
1585094,1017645,1305656
1585113,1017705,1305549
1584870,1017680,1304930
1585028,1017843,1304625
1585142,1017822,1303937
1585082,1017955,1304335
1585486,1017901,1304571
1585507,1017512,1304370
1585238,1017114,1304505
1585259,1016699,1304246
1585124,1016532,1304226
1585371,1016444,1303747
1585262,1016692,1303639
1585047,1016519,1303493
1585047,1016661,1303530
1585139,1016628,1303901
1585316,1016459,1304035
1585320,1016129,1304521
1585177,1015621,1304564
1585214,1015289,1304468
1585302,1014641,1302612
1585282,1014481,1303213
1585511,1014138,1302952
1585282,1013991,1303030
1585523,1013606,1302205
1585430,1013233,1302462
1585437,1013288,1302071
1585496,1013267,1303629
1585945,1013402,1302747
1585696,1013278,1303237
1585764,1013028,1302752
1585685,1012822,1303652
1585876,1012625,1303021
1585908,1012261,1304234
1585939,1011862,1305956
1585687,1011686,1305451
1585687,1011449,1305747
1585741,1011649,1305447
1585899,1011908,1306261
1585941,1012533,1306044
1585979,1013042,1305707
1586202,1013277,1305839
1586026,1013479,1306062
1586343,1013632,1305483
1586339,1013273,1305001
1586529,1013107,1305157
1586324,1013258,1305685
1586234,1011511,1304317
1585356,1009988,1304523
1585339,1010016,1304885
1585439,1010487,1305946
1585313,1010641,1305714
1584914,1010611,1305255
1584979,1010374,1305582
1585014,1010251,1305711
1584715,1010096,1305620
1584563,1009950,1305445
1584573,1009389,1305795
1584751,1008982,1306209
1584717,1008493,1305907
1584525,1007999,1305611
1584276,1007663,1305780
1584401,1007728,1305214
1584448,1007711,1305969
1584820,1007737,1305224
1584669,1007746,1305686
1584610,1008046,1305690
1584496,1008298,1306821
1584638,1008531,1306623
1584907,1008593,1306214
1584505,1008815,1306240
1584276,1008538,1307438
1584276,1008213,1307111
1584376,1007726,1307657
1584316,1007199,1307347
1584275,1006820,1307289
1584335,1006446,1307171
1584424,1006327,1306205
1584113,1007611,1305804
1584307,1008444,1305205
1584395,1009368,1305200
1584567,1010079,1304788
1584720,1010501,1304338
1584390,1010570,1303824
1584414,1010749,1307210
1584302,1010758,1304118
1584822,1010725,1302746
1584961,1010676,1302437
1585005,1010740,1302748
1585019,1010516,1303371
1584903,1010782,1303758
1584894,1010961,1304520
1584887,1011450,1303567
1584777,1010991,1304078
1584777,1010172,1304088
1584669,1009575,1304598
1584732,1008766,1304726
1584688,1008218,1304332
1584789,1007783,1304789
1584921,1007156,1302637
1584989,1006617,1303059
1585054,1006611,1303246
1585119,1006251,1302771
1585264,1006022,1303097
1585247,1005482,1303054
1585227,1004896,1303195
1585228,1004157,1303433
1585202,1003812,1303511
1585449,1003621,1304207
1585666,1003822,1309805
1585514,1004198,1305208
1585615,1004176,1305404
1585818,1004025,1304493
1585777,1003833,1303916
1585932,1003187,1303649
1585280,1002749,1303703
1585251,1001737,1303918
1585251,1001096,1303264
1585511,1000179,1303902
1585636,999755,1303925
1585527,999274,1303057
1585415,999010,1303478
1585151,998326,1304624
1584724,997139,1305273
1584484,997249,1306260
1584370,997423,1307176
1584091,997483,1308443
1584092,997380,1308817
1583683,997395,1309690
1583912,997944,1309695
1583720,998361,1312104
1584157,998642,1310856
1584032,999062,1312289
1583943,999369,1311250
1583882,999971,1312076
1583990,1000585,1312125
1583955,1001179,1313276
1583949,1001767,1312475
1583575,1001746,1313759
1583575,1002097,1313901
1583776,1002793,1314421
1584247,1003637,1314042
1583985,1004609,1315017
1584212,1005273,1313581
1584107,1005818,1314096
1583946,1006121,1314023
1583765,1006701,1314240
1584009,1006915,1314960
1583776,1006702,1314535
1584093,1006397,1314731
1583962,1006316,1314755
1583882,1006186,1315631
1583852,1006163,1315810
1583801,1005970,1316122
1584212,1005840,1315815
1584376,1005725,1315901
1583927,1005971,1315421
1584297,1006019,1315776
1584162,1006305,1315884
1584450,1006226,1315905
1584281,1006244,1315138
1584065,1005540,1314461
1584065,1005520,1314507
1583998,1005648,1314433
1584267,1006040,1313962
1584178,1005976,1314758
1584394,1005595,1313958
1584641,1005097,1314130
1584130,1005375,1313690
1584220,1005237,1313507
1584300,1005146,1313151
1584621,1004696,1313120
1584720,1004336,1313236
1584739,1003976,1313271
1584537,1003732,1314657
1584534,1003539,1313374
1584423,1003395,1313910
1584792,1003558,1313302
1584805,1003640,1314114
1584937,1003770,1314233
1585047,1003945,1314335
1585076,1004539,1314574
1585170,1004964,1314841
1585251,1005094,1313853
1585066,1004594,1313159
1585066,1003586,1313068
1585105,1002889,1313569
1585129,1001947,1313135
1585306,1001357,1312436
1585180,1000611,1312506
1585217,1000577,1312763
1585316,1001452,1313208
1585506,1001944,1312956
1585563,1002415,1312760
1585646,1002884,1312849
1585647,1002498,1312943
1585492,1002135,1313069
1585273,1001868,1312655
1585282,1001684,1312152
1585340,1001497,1312926
1585360,1001309,1313228
1585106,1001304,1313854
1585255,1001270,1315225
1584821,1001253,1315687
1584876,1001497,1316172
1584699,1001617,1316659
1584458,1001924,1317435
1584458,1002175,1317805
1584112,1002331,1318204
1584255,1002460,1318368
1584151,1002772,1318403
1584279,1003022,1318507
1584277,1003028,1319536
1584225,1003472,1318909
1584145,1003487,1320969
1584241,1003423,1320776
1584099,1003536,1321467
1584278,1003686,1321828
1584183,1003853,1322280
1584151,1004239,1323335
1584216,1004811,1324167
1584463,1005352,1324935
1584869,1005705,1324977
1584835,1005653,1325696
1584690,1005352,1326312
1584634,1005070,1326675
1584679,1004824,1327146
1584650,1004377,1327173
1584208,1003957,1327780
1583943,1003605,1326733
1583943,1003317,1327208
1584089,1003412,1326653
1584385,1003736,1325782
1584170,1003726,1324857
1584267,1003860,1325087
1584012,1004102,1324428
1584279,1003950,1323976
1584213,1003780,1324807
1584557,1003215,1323982
1584482,1002558,1323801
1584553,1001631,1324514
1584265,1000693,1324367
1584426,999939,1325061
1584703,999302,1324293
1585094,998852,1324996
1584818,998766,1324932
1584653,999276,1325743
1584651,1000010,1326050
1584893,1000249,1326299
1585082,1000824,1326046
1584843,1001301,1325393
1584843,1001398,1325678
1584580,1001418,1326350
1584772,1001104,1325783
1584797,1001023,1326099
1585023,1001037,1325056
1584869,1000715,1325046
1584951,1000481,1325053
1585213,999652,1325571
1584920,999331,1324874
1585051,999058,1324762
1585256,999072,1324687
1584968,999431,1323729
1584893,999572,1324383
1585250,999796,1323142
1585283,999668,1323686
1585681,999461,1323064
1585554,999033,1323607
1585575,998503,1323201
1585336,997811,1323764
1585295,997109,1323616
1585166,996148,1324156
1584417,995382,1323390
1584267,993954,1324310
1584267,993228,1323731
1584236,992689,1324848
1584059,992414,1325036
1583876,992564,1325300
1583642,993110,1325592
1583542,993841,1326049
1583400,995945,1325995
1583389,996831,1326848
1583545,997726,1326594
1583606,998708,1326529
1583480,999002,1326667
1583388,998713,1326969
1583137,998405,1326755
1583303,997975,1327638
1583290,997603,1328320
1583383,997257,1327997
1582959,997000,1328061
1583394,996413,1328117
1583474,996386,1328554
1583528,996555,1328480
1583402,997219,1328293
1583211,997331,1328576
1583211,997133,1328579
1582976,997065,1329128
1583124,996668,1328581
1583110,996577,1328508
1583088,996638,1328593
1583206,996391,1328520
1583018,996177,1328617
1582785,995674,1329960
1582894,995236,1329737
1582928,995427,1329928
1582872,995133,1329826
1582706,994687,1329121
1582689,994330,1329231
1582743,994336,1331056
1583008,993803,1330522
1583353,993506,1330499
1583147,993342,1330357
1582912,992774,1331228
1583246,991952,1330134
1583005,991606,1331210
1583110,990991,1330613
1582975,990595,1330351
1582842,989955,1329619
1582842,989578,1329778
1582964,989258,1329860
1583439,989602,1329739
1583432,989973,1329979
1583350,990333,1329220
1583237,991136,1329578
1583000,992290,1329328
1583177,993590,1329202
1583610,996015,1329761
1583490,997245,1328296
1583806,998242,1329532
1583540,999217,1328642
1583704,1000316,1328002
1583785,1001146,1328243
1584353,1001732,1328261
1584377,1002552,1328654
1584484,1002862,1328196
1584419,1003387,1328623
1584705,1003682,1328494
1584674,1004113,1328354
1584856,1005299,1328405
1585069,1005741,1327749
1585246,1005674,1327617
1584810,1005019,1332425
1584454,1002995,1329102
1584051,1002190,1328356
1583763,1001350,1327439
1583689,1000551,1327553
1583438,999735,1327537
1583115,999741,1327515
1583131,999263,1327431
1582560,998503,1327582
1582511,997318,1326422
1582397,996052,1326833
1581679,992471,1326391
1581728,991981,1326456
1581882,991404,1326135
1582216,991470,1326080
1581564,991795,1326305
1581530,991135,1326074
1581337,990301,1326672
1581376,989186,1326373
1581333,988669,1326074
1581302,988237,1326154
1581141,987578,1327949
1580998,987261,1327507
1581016,987054,1329158
1581305,986868,1328453
1581374,987225,1335261
1581287,987534,1330962
1581303,987246,1331028
1581198,987074,1330558
1581002,986813,1329830
1581333,986948,1330545
1580931,987102,1330131
1580931,987145,1330937
1580765,987438,1329770
1580988,987539,1330074
1581107,987995,1329141
1581088,988406,1330152
1581334,989140,1328829
1581334,991190,1329683
1581543,992690,1328454
1581517,993856,1328247
1581697,995372,1327318
1581679,996607,1327405
1581771,997243,1326791
1581762,997771,1327629
1582056,998169,1326951
1581867,998185,1328091
1582405,998281,1326857
1582355,998361,1328190
1582538,998141,1327158
1582404,998465,1327977
1582700,998502,1326465
1582660,998717,1326107
1582876,998970,1327450
1582876,999208,1326430
1582582,999692,1328388
1582670,1000375,1327591
1582843,1001268,1327976
1583280,1002129,1327266
1582937,1002446,1327953
1583175,1003104,1327430
1583511,1003839,1327283
1583464,1003933,1327442
1583616,1003850,1328063
1583567,1003761,1327828
1583592,1003287,1328068
1583554,1002572,1327801
1583442,1002186,1328142
1583414,1001715,1328360
1583586,1001100,1328966
1583331,1000075,1327728
1583008,998929,1328129
1582865,998315,1328119
1582590,998233,1328664
1582686,998292,1328317
1582048,998532,1327976
1581754,998441,1328595
1581754,998264,1329566
1581609,997911,1330486
1581823,997316,1329487
1581662,996250,1330502
1581605,995072,1330031
1581357,994012,1330145
1581276,993760,1329495
1581479,994515,1329452
1581375,994394,1328735
1581270,994507,1329316
1581286,994249,1329035
1581001,993828,1329206
1581050,993502,1329459
1581047,992726,1329821
1581390,992073,1328856
1581341,991890,1328595
1581442,991785,1328189
1581278,992050,1328372
1581039,992736,1328840
1581282,993026,1329178
1581045,993925,1330321
1580812,994075,1331804
1580812,994240,1332003
1580774,994343,1332566
1580717,994284,1333127
1580602,993870,1333480
1580705,993438,1333622
1580876,993195,1333764
1580532,992841,1334165
1580709,992406,1334898
1580734,991996,1336091
1580799,991930,1335942
1580855,991751,1336542
1580639,991181,1335803
1580575,990882,1336242
1580816,990808,1337300
1580633,990461,1337265
1581086,990389,1337661
1581095,990564,1337455
1581304,990871,1337964
1581282,991370,1338191
1581412,991981,1338329
1581230,992653,1338749
1581346,993264,1339355
1581346,993822,1339815
1581215,994457,1340791
1581381,995106,1341410
1581221,995679,1341098
1581559,996102,1342148
1581558,996485,1341780
1581695,997164,1341096
1581862,997662,1341706
1581806,997629,1342460
1581936,997719,1343114
1581818,997599,1342206
1581964,997548,1342124
1581860,997710,1341907
1582064,997884,1341852
1582220,997837,1342139
1582493,998268,1342038
1582472,998658,1342194
1582417,998737,1341803
1582194,998515,1342392
1582508,998409,1342419
1582040,998489,1342855
1581539,998675,1343435
1581539,998597,1342448
1581228,998776,1342716
1581170,998874,1342779
1581010,998964,1342991
1580906,999120,1342705
1580641,998851,1342710
1580527,998714,1341912
1580348,997940,1342498
1580243,998108,1341992
1580392,998217,1342438
1580444,998258,1342410
1580277,998323,1342726
1580110,998023,1341760
1580096,997948,1341923
1580239,997801,1342143
1580597,998064,1341934
1580531,998165,1341400
1580445,998090,1342232
1580670,997686,1342166
1580463,997461,1342956
1580651,997474,1343652
1580201,997669,1342782
1580143,997212,1343453
1580143,996771,1342590
1580145,996166,1342662
1580133,995678,1342541
1579821,994821,1342899
1579980,994226,1342444
1579786,993792,1342062
1579961,993085,1342176
1579769,993129,1342024
1579745,993202,1342167
1579680,993242,1343183
1579722,993035,1342790
1579672,992556,1343173
1579815,992320,1343264
1579868,992175,1343249
1580248,992185,1343679
1580011,992196,1344125
1580236,991753,1344445
1580353,991264,1344462
1580111,991200,1344703
1580267,991332,1344239
1580368,991966,1345330
1580269,992225,1346141
1580269,992114,1345327
1580339,991928,1345595
1580239,991969,1345651
1580466,992482,1345879
1580257,992730,1346432
1580456,992735,1345679
1580484,991991,1346410
1580711,991720,1346119
1580773,991656,1346580
1580728,991912,1346461
1580702,992079,1346096
1580722,991758,1346228
1580546,991964,1346874
1580783,992292,1347079
1580706,992497,1347055
1581240,992578,1346238
1580998,992520,1346726
1581181,992373,1346111
1581235,993829,1346697
1581306,993601,1347460
1581187,993237,1346748
1581063,992325,1347511
1580880,991777,1347150
1580815,990950,1348122
1580279,990438,1348651
1579833,990139,1348918
1579647,989920,1348218
1579427,989672,1348228
1579263,989697,1347792
1579269,989748,1348177
1578918,989926,1348115
1578771,990025,1348176
1578693,990388,1347459
1578817,990346,1348393
1579184,990039,1347133
1579046,989690,1346791
1578932,989327,1348134
1579041,988908,1348973
1578943,988690,1348325
1578982,988496,1348521
1578415,988483,1348676
1578283,988417,1349378
1578283,988499,1349661
1578307,988515,1350098
1578608,988708,1349689
1578508,988500,1349723
1578670,988163,1349919
1578483,987761,1350650
1578553,987147,1351389
1578496,986909,1352118
1578389,986215,1352026
1578198,985723,1352042
1578293,985675,1352153
1578065,985490,1352308
1578189,985484,1352248
1578072,985297,1351358
1578327,985160,1352254
1578186,984753,1351321
1578220,984582,1352323
1578422,984295,1351794
1578295,984418,1351679
1578282,984644,1352277
1578359,985082,1352244
1578077,985558,1351709
1578097,986056,1351569
1578097,986477,1354184
1578262,986232,1352249
1578486,985936,1352656
1578421,985505,1352295
1578617,984619,1352251
1578324,984175,1352050
1578486,984180,1352919
1578474,984235,1352200
1578730,984255,1352334
1578671,984435,1350593
1578797,984535,1349593
1578580,984966,1349031
1578705,985549,1348901
1578972,986183,1348852
1579332,986926,1349429
1579184,987544,1348775
1579330,987906,1350555
1579362,988652,1349786
1579565,989193,1350223
1579847,989601,1349892
1579471,990413,1349834
1579471,991184,1350413
1579307,991845,1351072
1579480,992350,1351616
1579701,992705,1350742
1579762,992313,1351878
1580004,991942,1350560
1580223,992395,1350681
1580223,992554,1349394
1579948,992574,1350786
1579924,992469,1349785
1579748,992908,1350214
1579522,992441,1349743
1579195,992096,1350746
1578949,992329,1350364
1578765,992297,1350977
1578819,992432,1349973
1578607,992092,1350962
1578567,992468,1350469
1578866,992446,1350758
1578513,992131,1350023
1578476,991986,1350246
1578364,991864,1350796
1578092,991729,1351125
1578092,991874,1351619
1578101,992016,1350991
1578236,992224,1351216
1578108,992496,1349905
1578042,992625,1350379
1577858,992796,1349726
1578062,992190,1349064
1578073,991763,1347734
1578124,991540,1348259
1578095,991539,1347575
1578129,991342,1348586
1577967,991230,1348477
1578249,991377,1348701
1578023,991372,1347243
1578380,991215,1347413
1578419,990849,1346919
1578097,990658,1347316
1578243,990181,1347003
1578122,990180,1347120
1578095,989949,1347689
1577984,990121,1348171
1577651,989475,1348018
1577651,988972,1348529
1577903,988164,1348116
1577832,987645,1348716
1577862,986751,1348705
1577968,986149,1349016
1577943,985932,1349302
1578021,986121,1348780
1578157,986666,1348324
1578358,987263,1348434
1578414,987562,1347704
1578343,987335,1347986
1578142,987066,1347967
1578483,986989,1347401
1578445,987060,1347198
1578924,987121,1346995
1578698,987307,1346122
1579011,987603,1346205
1579075,987957,1345127
1579093,988502,1344339
1579232,989294,1343441
1579261,989842,1344037
1578999,990085,1343426
1578999,990586,1342543
1579368,991191,1341783
1579368,991823,1341911
1579607,992580,1340285
1579476,992594,1339560
1579567,993295,1339802
1579959,993676,1339880
1580110,994031,1340517
1580188,994570,1340657
1580441,995113,1341290
1580407,995009,1340792
1580251,994830,1340916
1580382,994491,1341545
1580537,994165,1342219
1580962,993909,1343133
1581078,993528,1343826
1580870,993018,1343452
1580836,992138,1345084
1580837,991434,1345767
1580688,990738,1345927
1580027,990253,1345938
1580027,989573,1346123
1579759,989219,1346203
1579411,988837,1345948
1579397,989279,1345457
1579176,989567,1345809
1579032,989919,1345431
1578801,990372,1345660
1578718,990711,1345771
1578668,991132,1345927
1578681,991745,1346104
1578578,992226,1346591
1578675,992606,1346412
1578590,992790,1346480
1578852,993211,1346658
1578953,993391,1347741
1579496,993620,1347312
1579213,993609,1347118
1579227,993503,1347402
1579276,993893,1347348
1579407,993977,1348293
1579238,994423,1348710
1579007,994861,1348753
1579007,995325,1348409
1578864,995690,1348745
1579034,996136,1349268
1579140,996476,1348918
1579341,996582,1349124
1579313,995943,1348219
1579345,994689,1349390
1579212,994010,1348866
1579258,993068,1349619
1579157,992414,1349821
1579224,991829,1351898
1579021,991116,1351374
1579036,990336,1350781
1579144,989762,1350701
1579082,988971,1349578
1579496,988779,1349877
1579396,988203,1349581
1579481,987876,1349933
1579663,987907,1349795
1579590,988063,1349795
1579936,988161,1349053
1579687,988496,1349524
1579319,988377,1349190
1579319,988416,1349032
1579522,988850,1349319
1579630,989400,1349568
1579565,989270,1349353
1579694,989063,1349235
1579703,988963,1348945
1580021,989252,1349632
1579950,989660,1350360
1579917,989762,1350878
1580002,990000,1350489
1580138,989935,1350559
1579936,989793,1350567
1580100,990010,1350638
1580092,990102,1350565
1580661,990119,1351172
1580346,990192,1355800
1580721,990059,1352469
1580767,990654,1351580
1580913,990771,1350661
1580856,990436,1351223
1580782,990263,1351223
1580665,989749,1350441
1580665,989001,1351341
1580461,988133,1350953
1580325,987402,1351560
1580334,986843,1350848
1579922,986100,1351312
1579795,985601,1353427
1578870,985657,1352768
1578823,986286,1352459
1578668,986598,1353025
1578800,986955,1353619
1578772,987015,1354016
1578752,986955,1353384
1578376,986780,1353569
1578570,986966,1353375
1578697,986879,1355127
1578984,986729,1353597
1578843,986836,1352365
1578967,986931,1352858
1578982,987245,1355890
1579101,987788,1353756
1578681,988399,1354243
1578573,988631,1354914
1578573,988920,1354154
1578522,989327,1354370
1578786,989779,1353960
1578798,989801,1354088
1578910,989757,1353848
1578982,989842,1353198
1578809,989894,1353404
1578677,989374,1353513
1578962,988729,1353792
1578677,988094,1353178
1578716,987743,1352166
1578538,987451,1351597
1578443,987165,1350685
1578614,987079,1350588
1578755,987281,1349531
1579078,987459,1348570
1579028,987604,1347739
1579183,987689,1347975
1579288,987887,1346237
1579374,988214,1346894
1579444,988613,1346614
1579203,988614,1345799
1579028,988360,1345467
1579028,987753,1345242
1579211,987150,1345072
1579392,987011,1344278
1579230,986707,1344872
1579337,986299,1344428
1579384,986063,1344766
1579742,985561,1345143
1579622,985489,1344725
1579576,985447,1344729
1579632,984909,1344648
1579771,984180,1343845
1579696,983404,1344585
1579783,982960,1344045
1579832,982692,1344084
1580219,982557,1342939
1580249,982567,1342951
1580071,982909,1342081
1580392,983172,1343162
1580429,983978,1343071
1580333,984157,1341271
1580321,984508,1341720
1579991,984422,1340785
1579991,984422,1341459
1580224,984269,1340738
1580158,984440,1341181
1580333,984487,1341038
1580213,984276,1342059
1580197,983665,1340871
1579741,982754,1340022
1579437,982542,1340500
1579080,982098,1340634
1579088,981588,1340097
1578378,980976,1340271
1578300,980375,1340166
1577996,980306,1341669
1578044,980242,1341095
1578174,980292,1341274
1578122,980335,1341115
1578207,980124,1340840
1578281,979529,1341373
1578050,979446,1341553
1578219,979639,1341965
1578101,979826,1342235
1577675,979634,1342457
1577675,979474,1342162
1577724,979233,1342774
1577970,978588,1343144
1577984,977619,1343331
1578191,976661,1343132
1578146,976051,1343529
1577747,975727,1342117
1577325,975463,1343398
1577385,975319,1342609
1577481,975403,1342397
1577420,975878,1340825
1577512,976241,1341409
1577308,976573,1340828
1577369,976814,1341275
1577316,976930,1340687
1577606,977206,1340928
1577832,977141,1339943
1577503,977017,1340477
1577669,976232,1339896
1577508,975594,1340213
1577710,975239,1340680
1577505,975087,1341008
1577217,975164,1341686
1577217,974934,1341144
1577473,975110,1341305
1577532,975458,1341994
1577672,976341,1342225
1577803,977018,1341966
1577724,977370,1341813
1578173,977691,1341712
1578227,978019,1341786
1578504,978224,1342044
1578345,978467,1341911
1578451,978680,1341965
1578542,978522,1341336
1578501,978617,1341055
1578610,978871,1340936
1578921,978921,1341144
1579121,978896,1341492
1578961,978706,1342017
1579060,978373,1342070
1579067,977981,1341851
1579133,977804,1341570
1579302,977585,1341505
1578903,977403,1341252
1578903,976930,1341201
1578864,977172,1341662
1578830,977618,1341586
1579121,978229,1342055
1579321,978778,1342298
1579367,979363,1342574
1579833,980787,1342938
1579818,981602,1343035
1579781,982101,1343086
1580157,982180,1343099
1579908,981781,1343925
1579882,981119,1343847
1579457,980340,1343703
1579486,979421,1344081
1579274,978596,1343865
1579372,977742,1344508
1579006,977161,1344767
1578667,976780,1345232
1578455,976722,1345452
1578507,977032,1345620
1578334,977411,1345670
1578034,977993,1345964
1577614,978214,1346413
1577614,978086,1346613
1577719,977669,1346079
1577522,976954,1346053
1577734,975628,1347354
1577576,974174,1347611
1577654,973080,1347645
1577325,970480,1347603
1577330,968918,1348017
1576907,967794,1347311
1577130,966970,1346770
1577058,966492,1345804
1576861,966286,1345627
1576760,966366,1344770
1576767,966344,1344601
1576500,966123,1343379
1576909,965312,1344363
1576884,966429,1343654
1576563,966918,1343503
1576845,967333,1343065
1576978,967996,1341988
1577193,969098,1342058
1577120,970483,1341352
1577083,972092,1342319
1577337,973614,1342089
1577396,974842,1342200
1577680,975567,1342007
1577865,976138,1342320
1578123,975785,1341710
1577772,975094,1342696
1578084,974207,1342218
1578080,973727,1342607
1578508,973513,1342167
1578577,973640,1342666
1578560,973435,1342096
1578514,972865,1342429
1578658,972580,1342168
1578474,971770,1342270
1578630,971561,1341692
1578287,971061,1341550
1578287,970820,1341398
1578500,971012,1342422
1578536,971488,1341485
1578564,971974,1341344
1578624,972193,1341323
1578979,972899,1341036
1578895,974081,1341564
1578965,974099,1342764
1579104,973862,1342168
1579186,973064,1342676
1579151,972209,1343524
1579212,971647,1343506
1579044,971859,1344776
1579319,972008,1345218
1579439,972302,1344981
1579877,972435,1345632
1579872,972755,1346167
1580017,972850,1345453
1579953,972849,1346800
1580104,972519,1346645
1580120,972164,1346454
1580256,971985,1346539
1580256,972076,1347454
1579820,972351,1347090
1579892,972168,1346043
1579813,971699,1350578
1579758,970950,1347541
1579386,970475,1347295
1578737,971064,1347644
1578341,971340,1347926
1578248,971257,1348366
1578321,971611,1348447
1578201,971871,1348821
1577936,972059,1349668
1577991,972060,1349630
1577924,972182,1350133
1578173,972457,1350591
1578372,972513,1351266
1578392,972721,1351911
1578121,972679,1350983
1578444,972903,1349786
1578256,973043,1350135
1578569,973604,1349627
1578123,973911,1349295
1578123,974274,1348813
1577916,974821,1348637
1578222,975021,1348278
1578523,975301,1346886
1578692,975613,1347102
1578366,975842,1346599
1578316,976333,1351365
1578203,976888,1347900
1578320,977609,1347178
1578146,977607,1346654
1578184,977086,1347232
1578175,976321,1347056
1578045,975458,1347342
1577742,974995,1347097
1577878,974960,1347863
1578011,975269,1347873
1578438,976033,1347951
1578407,976500,1348318
1578506,976496,1348648
1578288,976608,1349255
1578666,976541,1348570
1578556,976275,1348752
1578429,976031,1348967
1578429,975699,1348112
1578139,975522,1348298
1578177,975685,1349100
1578322,975945,1349418
1578516,976046,1349964
1577930,976140,1349248
1577840,976395,1350366
1577792,977203,1350316
1577788,977603,1350658
1578080,977802,1351418
1578016,977608,1351552
1577830,977394,1350472
1577871,977013,1351933
1578044,977562,1351435
1577998,977908,1351613
1578492,978273,1351592
1578429,978359,1352517
1578271,978496,1353717
1578364,978743,1355117
1578702,979231,1354990
1578914,979586,1356158
1578461,979911,1356975
1578452,979738,1357648
1578452,979458,1357464
1577927,979456,1357520
1578450,979675,1358111
1578554,979408,1358194
1578646,979238,1360294
1578767,979310,1359171
1578822,979677,1360322
1578981,980234,1359972
1578571,980049,1361676
1578486,979801,1360620
1578261,979262,1361441
1578087,979061,1360832
1577641,979323,1361700
1577745,979494,1360286
1577929,979843,1360164
1577707,980301,1359360
1577446,980701,1360394
1577376,980941,1359759
1577446,981488,1360338
1577744,981586,1358718
1577472,982332,1359710
1577273,982819,1358392
1577273,983197,1357856
1577389,983643,1357493
1577552,983156,1356972
1577453,982452,1357407
1577444,981954,1356617
1577326,981729,1356011
1577679,981555,1355954
1577515,981597,1355998
1577520,981992,1356121
1577667,982462,1355673
1577582,981820,1355182
1577242,980912,1355131
1577373,980167,1355561
1577513,979475,1356014
1577669,979022,1355452
1577458,978717,1355773
1577358,978534,1354318
1576962,978689,1355498
1576925,979501,1355203
1576654,979832,1355055
1577033,979838,1354779
1576725,979605,1355628
1576540,979229,1355037
1576545,978941,1354452
1576794,978504,1354163
1576852,978575,1353361
1576877,978719,1353651
1576834,978821,1352951
1576792,979067,1353056
1576705,979581,1353114
1576982,979609,1352273
1577235,979939,1352469
1577438,979995,1352057
1577161,979937,1352057
1577113,979665,1352203
1577283,979636,1352891
1577370,979044,1351951
1577272,978927,1351872
1576998,978588,1352256
1576998,978130,1352652
1577146,977830,1352964
1577117,977971,1353199
1577295,977945,1352823
1577231,977648,1352672
1577101,976794,1353642
1577397,976732,1354023
1577120,976732,1354900
1577167,976114,1354968
1577134,976026,1355693
1577486,975894,1356067
1577089,975822,1356320
1576975,975844,1356290
1576630,975625,1356581
1576767,975774,1357697
1576554,975614,1357892
1576236,975117,1358013
1576011,974283,1359121
1575904,973541,1359591
1575737,973222,1359051
1575467,972927,1359204
1575208,972620,1359633
1574862,972718,1359953
1574862,972677,1359326
1574923,973097,1358815
1575140,973613,1359564
1574883,973735,1359706
1575114,974150,1359358
1574597,975945,1359217
1574991,976061,1358285
1575060,975844,1357865
1575300,975669,1357533
1575108,975532,1356721
1575231,975190,1355593
1574969,975494,1355472
1575174,975737,1355466
1575185,975741,1355934
1575725,975709,1355174
1575439,975780,1355470
1575571,975628,1355247
1575532,975599,1354434
1575500,975624,1354274
1575233,975759,1354466
1575285,975912,1354688
1575285,975847,1355064
1575052,975797,1353900
1575232,975830,1354378
1575243,975821,1353867
1575289,976086,1354005
1575320,975979,1354072
1575463,975882,1353486
1575391,975972,1353732
1575450,975925,1353395
1575542,976197,1354019
1575704,976512,1353871
1575542,976782,1353726
1575780,977506,1352916
1575956,978480,1353738
1576004,979021,1353129
1576144,979070,1353628
1576384,978443,1353486
1576235,977580,1353884
1576555,976897,1353778
1576325,976319,1354356
1576391,975997,1354001
1576291,975453,1354598
1576291,974973,1354536
1576120,974314,1355253
1576136,973839,1355850
1576239,973462,1356435
1576310,972877,1357149
1576430,971752,1358101
1576204,970408,1359313
1576155,969720,1359679
1576258,969984,1359458
1576342,970225,1360973
1576306,970485,1362274
1576511,970457,1363302
1576133,971066,1364121
1576347,971238,1364100
1576438,970953,1363733
1576692,970432,1364262
1576622,969815,1364559
1576678,969207,1364366
1576678,968780,1364437
1576762,968461,1365025
1576602,968608,1365369
1576305,968336,1366175
1576305,968135,1367177
1575818,968444,1367271
1575670,969274,1367100
1575443,970073,1367545
1575555,970473,1368175
1575344,970408,1367822
1574919,970546,1367825
1574832,970268,1367293
1575008,969956,1366237
1574940,969928,1366783
1575039,969686,1366757
1574681,969649,1366977
1574633,969832,1367249
1574635,969896,1367155
1574879,969771,1366100
1574959,969615,1367382
1574953,969460,1366771
1574971,969415,1365754
1574941,969941,1365491
1574808,970505,1369869
1574917,970621,1366032
1574625,971248,1364425
1574625,971417,1364566
1574755,971515,1364147
1574975,971591,1364308
1575162,971735,1363923
1574939,971535,1363757
1574928,971609,1362637
1574986,971938,1362401
1575152,972118,1363189
1575017,972182,1361702
1574967,972743,1364013
1574932,973224,1362895
1575027,973407,1362488
1574999,973802,1363056
1575163,974309,1363071
1575476,975088,1363227
1575915,975702,1363136
1575911,975893,1363253
1576062,975783,1364529
1575990,975921,1364665
1576177,976329,1364279
1576425,976738,1364638
1576106,977034,1363839
1576106,977057,1368080
1576026,976904,1364778
1576242,976665,1364229
1576107,976190,1363214
1576316,975607,1364191
1576560,974920,1364150
1576506,974741,1364336
1576551,974806,1364050
1576581,975127,1363833
1576828,975507,1364443
1576719,975352,1365098
1576645,974361,1366394
1576641,973608,1366521
1576550,972845,1366221
1576728,972263,1366378
1577224,971820,1366956
1577088,971441,1367917
1577019,971028,1368417
1576864,970689,1367993
1577065,970519,1367647
1576956,968815,1368499
1576995,967225,1370056
1577033,967395,1369079
1577211,967064,1370257
1576965,966306,1369188
1576585,965586,1368844
1576707,965052,1368552
1576798,964481,1369234
1576865,964242,1369189
1576892,963718,1368475
1576877,963614,1369095
1576608,963124,1368561
1576806,963261,1368571
1576857,963447,1367836
1577098,963917,1369308
1577057,964062,1369038
1576723,964717,1371086
1576747,965097,1368789
1576575,965394,1370536
1576454,965675,1370809
1576014,966318,1372408
1575585,966457,1370616
1575612,967213,1370478
1575648,967864,1370277
1575770,968471,1371198
1575899,969221,1370760
1575749,970194,1371655
1575998,971194,1370892
1575871,972089,1371766
1576163,972306,1371268
1576232,972257,1371815
1576262,971936,1372161
1575998,971413,1371328
1576197,971348,1371877
1576279,970983,1371177
1576810,970493,1371478
1576581,969977,1370971
1576533,969586,1371662
1576105,969733,1371145
1576453,970157,1372038
1576640,970665,1372364
1576567,971076,1373040
1576567,971193,1373176
1576069,971069,1373271
1576402,970671,1374015
1576306,970358,1374388
1576573,970477,1375238
1576484,970653,1377000
1576669,971611,1376440
1576594,972172,1376969
1576585,972354,1376102
1576859,973341,1377227
1577094,974156,1376162
1577564,974561,1375644
1577633,974735,1376408
1577923,975569,1376077
1578332,975420,1376707
1578338,974952,1375307
1578662,975131,1375561
1578419,975385,1375438
1578608,975694,1375333
1578147,976258,1374627
1578590,976126,1375075
1578390,976040,1374882
1578576,975776,1375606
1578486,975733,1375506
1578668,975648,1375770
1578522,975777,1376240
1579033,976177,1376490
1579038,976527,1376992
1579510,977208,1376918
1579410,977673,1377161
1579546,978107,1377211
1579349,978726,1377738
1579745,979069,1377708
1579938,979444,1377493
1579895,979617,1377475
1579895,979534,1375574
1579644,979241,1375409
1579702,979126,1374169
1579824,979139,1373687
1580311,979085,1372435
1580260,978791,1371871
1580430,978867,1371587
1580203,979122,1371462
1580180,978850,1371297
1580144,978380,1372122
1579906,978181,1371435
1579714,977426,1371464
1579657,976727,1372578
1579556,976637,1373523
1579580,976633,1373563
1579891,976977,1373087
1579804,977430,1373484
1579596,978553,1373247
1579871,979472,1372761
1580025,980494,1373867
1580079,981784,1372168
1579736,983021,1371923
1579485,983496,1372348
1579485,983712,1371524
1579692,983519,1372094
1579971,983109,1371890
1580009,982608,1372000
1579934,981961,1371730
1579611,981688,1370166
1580051,980675,1369412
1579866,980424,1369444
1580204,980533,1368023
1579861,980687,1367164
1580174,980560,1366561
1579879,980144,1366122
1579955,979985,1366211
1579807,979752,1366538
1580154,979242,1365299
1580123,978683,1365393
1579950,978309,1364813
1579927,977964,1365113
1579990,977848,1364632
1580029,977862,1363119
1580022,978637,1364249
1579743,979019,1363809
1579743,979700,1363904
1580009,980572,1363673
1579734,981156,1362946
1579916,981335,1363178
1579842,980874,1363720
1580137,980346,1363233
1579798,979994,1363055
1580224,979754,1361909
1580169,979513,1362767
1580401,979649,1362694
1580558,979772,1362284
1580417,980121,1361516
1580225,980351,1361837
1580529,980405,1361312
1580848,980253,1362203
1580939,980244,1360581
1581022,980039,1360906
1581078,979895,1361309
1581222,980039,1360796
1581272,980059,1360519
1581353,980032,1360724
1581005,980345,1360110
1581429,980077,1359566
1581698,979818,1360178
1581383,979533,1360350
1581357,979008,1358810
1581416,978343,1358562
1581509,977826,1357569
1581526,977635,1357395
1581647,977483,1356922
1581334,977126,1356857
1581491,977040,1358250
1581578,976986,1358326
1581785,976948,1358749
1581514,976511,1357712
1581012,974697,1357735
1580559,973972,1357715
1580232,974152,1357673
1580138,974217,1356994
1580236,974363,1357756
1580331,974383,1358415
1580053,974040,1358769
1579634,973546,1359209
1579714,972924,1358416
1579781,972132,1358595
1579870,971671,1358938
1579870,970954,1358624
1579594,970180,1358184
1579444,969978,1358594
1579752,970354,1357818
1579992,970702,1357854
1580017,971007,1357322
1580020,971050,1357513
1579933,971136,1357424
1580044,971331,1358938
1580040,971472,1358676
1579850,971115,1358222
1579468,970349,1357482
1579468,969773,1362520
1579556,969606,1358931
1579614,969768,1358419
1579512,970051,1358414
1579675,970051,1358998
1579740,969641,1358563
1579559,969118,1357876
1579153,969094,1356890
1579460,967928,1357673
1579573,968488,1356317
1579820,969523,1356204
1579966,970999,1355457
1580339,970995,1356322
1580062,970075,1356097
1580336,969918,1355781
1580517,970001,1355395
1580474,970283,1355419
1580392,970559,1355947
1580336,970535,1356742
1580570,970222,1356906
1580564,970201,1356752
1580611,970404,1356334
1580425,970296,1356909
1580607,970300,1356683
1580637,970916,1356543
1580908,971327,1357122
1581154,971673,1356664
1581350,971906,1356184
1581067,971997,1356693
1581292,971729,1357042
1581315,971905,1357766
1581493,971609,1357589
1581215,971282,1357519
1580959,970420,1356873
1580959,969954,1357806
1580970,969472,1357188
1580777,969321,1358135
1580792,969274,1357794
1580781,969047,1357313
1580613,968788,1357390
1580077,969774,1357380
1580074,970745,1357550
1580260,971867,1358408
1580194,972955,1357265
1580380,973578,1357636
1580237,974291,1357750
1580271,974795,1357557
1580358,974878,1357566
1580733,975221,1358278
1580544,975667,1357332
1580572,975802,1358219
1580611,975612,1358649
1580726,975504,1358017
1580531,975096,1358905
1580360,974414,1358172
1580164,974161,1358977
1580164,973506,1358399
1580126,972844,1358010
1580177,972104,1358170
1580428,971405,1358557
1580320,970175,1358697
1580326,969476,1358846
1580042,968906,1357808
1580116,969143,1359250
1580160,969340,1358525
1580112,969359,1359077
1579853,969352,1357352
1579919,969103,1359858
1579729,969523,1358584
1579970,970043,1358870
1580139,970916,1358545
1580288,971780,1359401
1580395,972500,1359422
1580600,973212,1359542
1580416,973572,1359634
1580721,973368,1358709
1580612,973160,1359608
1580420,972540,1358810
1580420,971950,1358141
1580315,971852,1358952
1580672,972309,1358317
1580471,972703,1358280
1580664,972813,1358413
1580688,972987,1358901
1580753,973097,1359030
1580718,972921,1357936
1580989,972076,1358356
1581027,971975,1357739
1581189,971462,1358138
1580967,971468,1358123
1580897,971857,1358074
1580797,972118,1357599
1581294,972213,1358245
1581465,972526,1358141
1581557,973120,1358520
1581642,973823,1361790
1581708,974393,1358922
1581630,974675,1360252
1582017,974385,1359796
1581630,974016,1360635
1581630,973031,1360572
1581700,972286,1361244
1581577,971573,1361657
1581623,971258,1361879
1581613,970893,1361579
1581955,970904,1362564
1581833,970540,1362186
1581984,970042,1363921
1581964,969323,1363244
1581895,968060,1363441
1581707,965738,1363272
1581733,962558,1363870
1581279,959526,1364660
1581252,955854,1364748
1580994,953123,1364458
1581106,951471,1365014
1580370,949536,1364779
1579788,950415,1364155
1579487,953431,1365344
1579364,954076,1365729
1579303,954727,1365985
1579685,955246,1366685
1579028,955920,1366379
1578960,956397,1366974
1579164,957398,1367683
1579328,958218,1368532
1579370,958830,1368994
1579364,958818,1370247
1579321,958651,1371291
1579343,958458,1372789
1579351,958830,1374063
1579698,959364,1374569
1579977,960287,1375513
1580109,961194,1377166
1579950,961946,1377701
1580101,962065,1378471
1580155,962479,1379341
1580401,962696,1379444
1580087,962629,1381249
1580087,962300,1382217
1580107,961951,1383356
1579935,961375,1384209
1579962,961168,1385073
1579936,960884,1385725
1580197,960273,1386397
1580068,960493,1387242
1580025,960683,1387484
1580073,960673,1387584
1580321,960884,1388633
1580499,960712,1388303
1580226,960339,1388742
1580347,960193,1388368
1580138,960143,1389778
1580594,960218,1390052
1580977,960569,1389964
1581011,961072,1391079
1580948,961993,1390781
1581200,963231,1390424
1581255,964290,1391079
1581273,965491,1389727
1581313,966208,1390664
1581313,966586,1389765
1581168,966537,1389226
1581329,966140,1388394
1581728,965902,1387306
1581711,965370,1387199
1581554,964677,1387225
1581646,963653,1386529
1581743,963012,1386138
1581893,962139,1386903
1581778,961720,1387073
1581949,961945,1386803
1582256,963392,1386816
1582760,964694,1386888
1582765,965268,1386903
1582880,964694,1387188
1582963,964085,1386698
1582904,963161,1387106
1582554,962325,1386346
1582539,961972,1386918
1582322,961708,1386679
1581918,961393,1385942
1581846,961425,1385949
1581748,961357,1384884
1581543,961380,1384432
1581418,961115,1384721
1581242,961099,1385302
1581115,961056,1383928
1581382,960999,1384750
1581597,961337,1384474
1581640,961781,1384715
1581544,962165,1383649
1581585,962374,1382024
1581613,962831,1381565
1581715,963341,1382143
1581644,963952,1381761
1581344,963891,1382114
1581344,963563,1380917
1581492,962920,1381355
1581628,962263,1380546
1581617,961736,1380744
1581600,961326,1380336
1581440,961075,1379749
1581489,961404,1379579
1581475,961148,1379141
1581185,960900,1378622
1581425,960823,1378133
1581474,960745,1376817
1581099,960555,1377173
1581059,960457,1376813
1581172,960649,1376144
1581318,961244,1376245
1581737,963874,1376696
1581953,964725,1376571
1581641,964910,1375981
1582118,965311,1376585
1582099,965563,1377141
1582201,965557,1376380
1581835,965239,1375667
1582102,965058,1376586
1581816,965117,1376373
1582032,964880,1376642
1582051,964265,1376417
1582384,963959,1376638
1582132,963710,1376436
1582297,963749,1376257
1582016,963919,1375808
1582387,964319,1375580
1582417,964703,1375386
1582792,965185,1375192
1582711,965734,1375615
1582898,965711,1375408
1582417,965377,1375447
1582958,964671,1374151
1582744,964282,1374678
1582661,963735,1372639
1582661,963267,1372529
1582447,963049,1371890
1582620,963150,1370806
1582745,963248,1370449
1582996,962768,1370155
1583093,962440,1370598
1582926,962811,1370341
1582754,963331,1370281
1582932,963353,1370694
1582709,962775,1370644
1582660,962057,1370372
1582415,961284,1369658
1582193,960736,1369194
1581881,960784,1368220
1581846,960645,1368747
1582067,960957,1368312
1582098,961399,1367628
1581922,961712,1368252
1581843,962055,1367617
1581835,962444,1367989
1582065,962676,1367570
1581822,963250,1367377
1581822,963778,1366765
1581813,964617,1367606
1581683,965256,1365477
1582063,965756,1365759
1581855,965879,1365600
1582071,965715,1365314
1582413,965696,1365860
1581878,965421,1365238
1581961,964913,1364666
1582005,964449,1365136
1582239,963650,1364631
1582117,962756,1364413
1582062,961911,1363769
1581797,961618,1364659
1581929,961430,1363675
1582077,961486,1362931
1582226,961684,1363547
1582048,961544,1362617
1582102,961463,1362373
1581883,961253,1360911
1582135,960984,1364648
1582207,960541,1361494
1581912,960158,1360890
1581562,959785,1359740
1581512,961492,1359678
1581735,962678,1359840
1582149,963474,1359983
1582055,963971,1359427
1581616,963807,1359766
1581792,963253,1359105
1581954,962348,1359787
1581964,961583,1358115
1582140,961040,1357959
1581994,960427,1357587
1581806,959683,1357739
1581932,959677,1357026
1582103,959955,1358687
1582428,960404,1358292
1582561,960317,1359157
1582374,959953,1359529
1582366,959331,1358982
1582276,958753,1358920
1582351,958136,1358503
1582139,958081,1358756
1582093,957643,1358862
1582093,957551,1359806
1581993,957573,1358780
1582148,958320,1359250
1582278,959172,1358425
1582448,959837,1359475
1582334,960456,1358793
1582787,961525,1357879
1582653,961841,1357004
1582845,961903,1357212
1582761,962265,1357222
1582917,961974,1356676
1582796,961854,1355586
1582862,962108,1356295
1582959,962261,1355297
1583665,962566,1354691
1583335,962381,1355243
1583254,961746,1354292
1583415,960763,1354764
1583074,959933,1354200
1583110,959396,1354399
1582918,959280,1353822
1582304,958674,1354151
1582304,958072,1353233
1582268,957350,1354697
1582298,956724,1354390
1582135,955466,1354533
1581805,953886,1353966
1581668,952580,1353661
1581250,952142,1353043
1581237,952352,1353226
1581239,952749,1352362
1581182,952887,1353973
1581531,952626,1353077
1580753,951448,1353495
1580538,950399,1352597
1580598,948977,1353422
1580386,950948,1352777
1580211,952674,1352861
1580623,953072,1352684
1580650,953296,1352463
1580355,953461,1351976
1580346,953629,1352428
1580602,954178,1352727
1580689,955171,1354042
1580740,955948,1354306
1580749,955989,1354139
1580777,956246,1355031
1580840,957183,1355582
1581310,959104,1355639
1581525,960047,1357480
1581630,959411,1356675
1581851,959681,1357066
1581966,959757,1357128
1582106,959900,1357631
1582352,960267,1356866
1582034,960554,1356867
1582165,960762,1357315
1582245,961128,1357407
1582402,961081,1358023
1582369,961413,1357368
1582491,961518,1357111
1582417,961457,1357223
1582490,961360,1356750
1582658,961212,1358087
1582881,961172,1358556
1582913,960881,1358636
1583047,960825,1359179
1583081,960883,1359225
1583328,961293,1360042
1583233,960980,1360046
1583027,960428,1359659
1582823,959692,1360535
1582960,957320,1360431
1583118,957198,1359822
1583102,957254,1359728
1583171,957856,1359681
1582805,958014,1359718
1582826,957803,1359332
1583019,957262,1359842
1582840,956774,1361114
1582764,956660,1361869
1582548,956552,1361238
1582291,956563,1360206
1582175,956946,1359323
1582276,957578,1359206
1582138,958212,1359161
1582450,959171,1358602
1582479,960380,1358107
1582699,961603,1357729
1582378,962879,1358172
1582702,963852,1358052
1582482,964271,1357774
1582512,964464,1356831
1582512,964494,1357375
1582336,964129,1357466
1582542,963890,1357122
1582566,963922,1357596
1582717,963904,1357464
1582706,964109,1357476
1583110,965391,1358503
1582733,966385,1357431
1583229,966886,1356978
1583138,968255,1357139
1583295,969167,1356895
1583312,969653,1357839
1583302,969441,1357087
1583120,969290,1357362
1583495,968926,1356291
1583676,968689,1357498
1583942,968555,1356342
1583734,968570,1357077
1583782,968480,1356548
1583565,968601,1357614
1583859,968299,1356576
1583608,968338,1356540
1583611,968094,1356549
1583611,968116,1357250
1583646,968241,1356244
1583688,968694,1356134
1583815,969142,1355639
1584060,969328,1355966
1583907,968519,1355625
1584192,966636,1355460
1584004,966015,1354424
1584129,965254,1354717
1584140,964910,1355309
1584308,964492,1355674
1584126,964346,1354598
1584050,964640,1354394
1584139,965131,1353537
1584158,965349,1352807
1584521,964981,1353275
1584613,964379,1353391
1584592,963846,1353808
1584747,963690,1353348
1584541,963508,1354115
1584677,963431,1353718
1584456,962843,1353250
1584753,963122,1354230
1584940,963677,1353916
1585063,964346,1353882
1585119,964643,1353390
1585279,964974,1354409
1584656,964893,1354687
1584922,964619,1354235
1584944,964244,1354102
1585095,963653,1353692
1584813,963136,1355335
1585153,962738,1355591
1584784,962523,1356716
1585194,962524,1357774
1585139,962578,1357324
1585602,962736,1359037
1585596,963086,1359052
1585494,963574,1359926
1585374,964358,1360203
1585658,965310,1360857
1585798,966166,1360804
1585800,966796,1362224
1585188,967147,1362070
1585188,966807,1363155
1585082,966085,1363867
1585045,965270,1363238
1585092,965290,1362488
1584869,965439,1362935
1584977,965895,1362101
1584754,967253,1361960
1584919,967680,1360052
1584946,968181,1359481
1584961,969069,1359171
1585034,969710,1358494
1585041,970007,1358494
1584885,970477,1358124
1585265,970721,1358525
1585279,971189,1358144
1585601,971787,1358866
1585547,972136,1359026
1585692,972200,1359663
1585526,972313,1359270
1585496,972042,1363285
1585727,971404,1360951
1585598,971214,1360259
1585598,970968,1360606
1585347,970697,1360871
1585616,970156,1359685
1585671,969989,1359584
1585786,969889,1359838
1585363,969512,1359957
1585575,969895,1358826
1585376,970205,1359904
1585642,969515,1359382
1585450,968846,1359690
1585549,967944,1359546
1585448,966925,1359548
1585114,966288,1358908
1585331,965923,1359227
1585540,965467,1359598
1585677,965420,1358482
1585551,965453,1358744
1585585,965588,1358271
1585581,965877,1359199
1585602,966223,1358218
1585913,966210,1358188
1585657,966816,1357509
1585364,967149,1362592
1585364,967402,1358471
1585586,968040,1358497
1585718,968691,1358314
1585770,969185,1357904
1585808,969267,1357194
1585845,968719,1358517
1585869,968382,1357027
1585972,967727,1356870
1586170,967428,1355878
1586196,967437,1355643
1586146,967334,1355334
1586075,967372,1354757
1586215,967990,1354770
1586302,968510,1355150
1586491,968889,1355452
1586873,969568,1355767
1586815,970288,1355558
1586674,971018,1355436
1586691,971591,1356449
1587009,972191,1354443
1587116,972594,1355142
1586848,973157,1354580
1586848,973419,1354892
1586786,973627,1353816
1586805,973629,1354001
1587074,973635,1353520
1587314,973495,1354211
1587093,972940,1354182
1587075,972900,1354012
1586726,972690,1353479
1586664,972833,1353386
1586636,972755,1352970
1586588,972534,1353005
1586318,972276,1353287
1586053,971728,1353581
1586153,971557,1354068
1586274,971115,1353569
1586442,970611,1354003
1586535,970182,1354020
1586302,969840,1353760
1586297,969779,1353538
1586195,969866,1354426
1586335,969568,1354264
1585984,968933,1354571
1585744,968065,1355325
1585744,967601,1355693
1585832,967026,1355021
1585933,966776,1355374
1585915,966713,1354895
1585799,966562,1356905
1585598,966289,1356598
1585399,966016,1357340
1585291,965237,1357025
1585370,964447,1356500
1585373,963699,1356683
1585318,963371,1356990
1585202,962717,1358096
1585087,962057,1357540
1585057,961667,1357612
1584871,961006,1357221
1585423,960530,1358271
1585257,960517,1358534
1585357,960895,1358656
1585008,961372,1358263
1585101,961781,1358965
1584953,961708,1358803
1585008,961893,1358910
1584675,961900,1359005
1584675,961731,1359039
1584899,961660,1359441
1584842,961526,1359087
1584888,961705,1360231
1584722,961977,1360073
1585036,962294,1360871
1584920,962731,1359969
1585003,963128,1361284
1585079,963468,1360831
1585223,963960,1361724
1585169,964111,1361363
1585248,964356,1362674
1585019,964614,1362544
1585487,964787,1361979
1585545,964865,1362009
1585843,965081,1362901
1585696,965061,1362651
1585761,964975,1362142
1585666,965057,1361026
1585704,965341,1361170
1585786,965976,1360768
1585814,966605,1361060
1585814,966981,1360465
1585664,967177,1359646
1585837,967251,1359835
1585850,967000,1359946
1586009,966442,1359933
1585822,965504,1359335
1585986,964255,1359489
1585744,964111,1359452
1585993,964396,1360523
1586049,964314,1359936
1585962,964591,1359203
1585892,964574,1359651
1585677,964332,1359715
1585474,964397,1360005
1585632,964616,1360167
1585529,964961,1360761
1585595,964818,1360557
1585365,964292,1361444
1585061,963833,1360540
1585081,963493,1361230
1585301,963554,1360656
1584987,963946,1361758
1584751,964240,1361212
1584751,964820,1361525
1584742,965840,1362032
1584915,966850,1362980
1584964,967339,1362989
1585016,967468,1362753
1584750,967285,1361884
1585024,966700,1361930
1584835,966532,1361385
1585007,966461,1362141
1584855,966392,1361863
1585094,966488,1361300
1584861,966596,1361993
1584821,966637,1361192
1584725,966486,1361644
1584925,965308,1361578
1584711,965237,1362294
1584512,964657,1361793
1584797,964418,1362264
1584753,964567,1361743
1584845,964591,1362322
1584601,965186,1362403
1584759,965732,1363347
1584760,965994,1362553
1585141,966202,1363198
1584934,966083,1362721
1585115,965615,1362606
1584750,964773,1363329
1585030,964297,1363656
1584973,964054,1363044
1584896,963899,1363256
1584964,963679,1363163
1585395,963403,1363911
1585216,963295,1363937
1585535,963334,1363922
1585543,963408,1364284
1585501,963440,1364965
1585028,963151,1366104
1585028,962920,1366106
1585375,963186,1366246
1585098,963249,1366761
1585350,963193,1367713
1585251,962278,1367212
1585266,961332,1367701
1585016,960347,1368064
1585107,960387,1372789
1585120,960379,1369577
1585281,960731,1369156
1585224,961014,1369038
1585187,961506,1369447
1585141,962294,1369836
1585451,962705,1370898
1585636,962896,1370530
1585827,963069,1371213
1585682,963264,1372065
1585894,963152,1371714
1585385,963149,1371468
1585623,963156,1372428
1585252,963350,1371623
1584720,963462,1371990
1584720,963266,1373116
1584515,963055,1372972
1584641,963165,1374181
1584288,963650,1374449
1584337,964291,1375534
1584720,965107,1375848
1584461,965906,1375753
1584483,966646,1375779
1584203,966731,1375931
1584391,967006,1376143
1584478,967029,1378252
1584401,967144,1376637
1584314,967079,1376901
1584489,966770,1377043
1584353,966577,1377259
1584764,966554,1376728
1584850,966784,1376587
1584569,966918,1376556
1584908,967262,1376007
1584726,967563,1375527
1584684,967499,1375500
1584445,967165,1375897
1584297,966736,1375818
1584297,966484,1375183
1584205,965712,1374836
1584435,965699,1375090
1584550,965852,1374432
1584348,965916,1374187
1584306,966234,1373685
1584527,966672,1373457
1584463,967020,1374549
1584425,967672,1374836
1584396,968557,1374734
1584747,968955,1374877
1584696,969784,1374959
1584715,970953,1375644
1584855,971669,1374423
1585225,972626,1374721
1585324,973298,1374803
1585238,973257,1374629
1585366,973020,1374767
1585524,972825,1373726
1585502,972455,1374002
1585432,972280,1373507
1585235,971940,1373844
1585235,971490,1373796
1585030,971420,1373385
1585445,971346,1373561
1585443,971445,1373463
1585331,971412,1373346
1585539,971530,1373787
1585567,971922,1373633
1585764,971972,1374204
1585857,971679,1373229
1585799,971641,1373307
1585915,971653,1374011
1585738,971513,1374709
1585477,971414,1374593
1585785,971283,1375656
1585904,970977,1373983
1586434,970848,1374140
1586260,970757,1373133
1586228,970555,1373624
1586335,970058,1371440
1586253,969652,1370342
1586184,969194,1370359
1586069,968706,1370568
1586056,967895,1371392
1586056,967211,1369733
1586162,966383,1370242
1586111,965662,1369556
1585895,964838,1370329
1585825,963908,1370757
1585508,962813,1371058
1584872,961133,1370019
1584375,960679,1370988
1584443,960038,1370268
1584313,960058,1372003
1584333,960218,1370928
1583993,960422,1372275
1583970,960857,1372126
1583841,961196,1371301
1583934,961548,1371070
1584133,962207,1371205
1584246,962876,1371461
1584098,963114,1370656
1584070,963270,1371449
1584011,962822,1371117
1583766,962012,1371359
1583372,960578,1370643
1583372,958993,1372076
1583480,957499,1371109
1583348,956412,1372222
1583521,955907,1371594
1583180,955746,1372024
1583231,955683,1372167
1582895,956086,1373565
1582948,957180,1372630
1583116,958643,1372623
1583197,960207,1372332
1582862,961540,1373183
1583113,962192,1373499
1583120,962822,1373177
1583381,963094,1372321
1583300,963217,1372853
1583545,963127,1372993
1583470,963315,1373914
1583677,964643,1374490
1583771,964374,1373909
1583598,961529,1375170
1583822,961246,1374823
1584015,961054,1376398
1583693,961105,1375696
1583623,961048,1376317
1583685,960852,1375755
1583901,960392,1376388
1583789,960536,1375546
1584037,960438,1375370
1583694,960322,1375722
1583780,960553,1375575
1583718,960910,1374873
1584224,961157,1374718
1584377,960944,1374998
1584283,960289,1374710
1584127,959363,1375343
1584054,958343,1375533
1584070,957466,1375435
1584135,956756,1375510
1583771,956247,1376506
1583679,955753,1377186
1583679,955836,1377089
1583649,955939,1377258
1584120,956776,1376505
1583929,957757,1376304
1583895,958751,1376774
1583939,960177,1376451
1584490,962908,1376500
1584503,964121,1376116
1584801,964202,1376109
1584705,963446,1375583
1584712,962194,1376419
1584246,960837,1376670
1584291,958625,1376034
1584120,955693,1375326
1583892,952330,1374845
1583623,948672,1375241
1583368,945472,1375025
1582938,943467,1375035
1582987,943165,1375186
1582726,944314,1374339
1582256,945917,1375033
1581938,946733,1374940
1581938,947736,1374865
1582060,949126,1374923
1581916,950810,1373703
1582093,952780,1373694
1581970,954308,1373629
1581917,955638,1372890
1582292,959249,1372528
1582532,960814,1372041
1582597,962075,1372600
1582859,963666,1371711
1582780,964878,1372255
1582881,966198,1372324
1583112,967997,1372092
1583430,969464,1371395
1583427,970512,1371438
1584002,971032,1371673
1583815,971607,1371395
1583731,971551,1370945
1583810,971803,1371293
1584056,972183,1371138
1584156,972338,1372356
1584035,972386,1372177
1583708,971873,1372516
1583708,970829,1373481
1583881,969659,1373840
1583941,968583,1374734
1583972,967438,1374180
1583634,966151,1374477
1583804,965223,1374803
1583828,964209,1375932
1583920,964345,1376194
1583805,964706,1376641
1583918,965051,1376968
1583785,964892,1377895
1583734,964752,1377042
1583886,964869,1377364
1584080,964574,1377072
1584350,963904,1377155
1584479,963336,1376701
1584294,963207,1377768
1584488,963072,1377484
1584327,962957,1378268
1584502,963064,1377992
1584348,963524,1378909
1584161,964052,1379491
1584161,964690,1379394
1584315,965581,1379251
1584560,966406,1378818
1584621,966926,1379000
1584604,967196,1379482
1584662,967348,1379487
1584952,967846,1378962
1584936,968323,1378332
1585053,968935,1378750
1585126,969343,1378305
1585158,969738,1377957
1585101,969923,1377221
1585258,970151,1377141
1585370,970467,1376690
1585919,970640,1377073
1586009,970645,1377196
1585781,970446,1376839
1585728,969878,1378309
1586024,969759,1377837
1585992,969544,1378116
1585718,969583,1378844
1585566,969161,1378421
1585566,969228,1378658
1585504,968964,1378833
1585282,969126,1378742
1585345,969155,1378080
1585136,968783,1378967
1585006,968873,1378426
1584737,969949,1377544
1584600,970350,1378032
1584736,970367,1378013
1584882,971010,1377504
1585025,971566,1377368
1584721,972272,1376172
1584700,973250,1376228
1584731,973932,1374561
1584896,973865,1373863
1585167,973377,1373875
1585085,972662,1372892
1584985,972183,1371734
1585092,971847,1370601
1585212,972039,1370417
1585161,972073,1370608
1584762,972277,1369955
1584762,972379,1370556
1584943,972531,1370690
1584733,972485,1371679
1585016,972569,1372142
1585004,972126,1371838
1585004,971278,1371522
1584832,971824,1371029
1584878,972180,1370297
1584850,972584,1370274
1585198,972994,1371016
1585045,973433,1371218
1585194,973776,1371287
1584904,974079,1371249
1584870,974564,1371351
1585082,974492,1371553
1585583,974443,1371815
1585492,974392,1371477
1585587,973746,1371263
1585349,973164,1371958
1585441,972636,1373648
1585402,972000,1372255
1585461,971627,1371302
1585093,971543,1372383
1585093,971626,1373650
1585291,971706,1373625
1585241,971545,1374480
1585455,971893,1375760
1585253,971380,1376433
1585555,970726,1376003
1585476,971124,1376970
1585776,971289,1377620
1585565,971353,1378778
1585825,971366,1380136
1585809,971747,1380643
1585779,971483,1381317
1585722,971305,1380802
1585941,970880,1380673
1586005,971124,1381926
1586284,971221,1383079
1586158,971216,1381555
1586497,971767,1383541
1586549,972404,1382567
1586812,972675,1382531
1586772,973348,1382737
1586654,974004,1382261
1586654,974721,1382865
1586442,974957,1382699
1586792,975083,1383296
1586581,974520,1382364
1586759,974013,1382336
1586796,973071,1382341
1586778,972353,1382898
1586791,971422,1383105
1587040,971415,1383444
1587049,971282,1383483
1587005,970825,1384604
1586489,970163,1383228
1586801,969810,1383639
1587019,970120,1382440
1587223,970348,1383419
1587399,970555,1383008
1587400,970078,1384925
1587156,969710,1384411
1586627,968273,1385583
1585852,966497,1383878
1585561,967659,1385298
1585866,967915,1383689
1585769,968191,1382781
1585201,968559,1382045
1585132,968830,1381897
1585203,969023,1382140
1585524,968862,1381702
1585358,968937,1383258
1585311,968707,1381968
1585035,968703,1381725
1585073,968996,1381196
1585328,969399,1382830
1585830,969809,1383431
1585607,970425,1383793
1585693,970896,1382629
1585675,971962,1382845
1585972,973184,1382816
1585893,973930,1383112
1585867,974753,1383232
1585383,974716,1382627
1585383,974425,1382571
1585601,974544,1382870
1585633,974440,1382281
1585692,974729,1382063
1585584,974493,1381645
1585742,974111,1381556
1585620,973787,1381452
1585819,973449,1382188
1585521,972835,1383178
1585825,972756,1382903
1585730,972907,1383465
1585618,973348,1382156
1585654,973889,1382691
1585851,974332,1381965
1586033,974695,1382108
1586320,974860,1381580
1586273,974901,1382493
1586517,974310,1382181
1586236,973475,1382775
1586244,972665,1383930
1586377,972165,1384616
1586249,971749,1384601
1585893,971559,1385321
1585893,971335,1385716
1586188,971296,1385242
1586156,971754,1386734
1586355,972074,1387537
1586503,972554,1388234
1586550,972807,1389413
1586466,972368,1390583
1586487,972251,1391129
1586517,971980,1390603
1586585,971806,1390126
1586597,971466,1389588
1586454,971358,1388540
1586628,971547,1387440
1586782,971795,1388665
1587062,972368,1388273
1587065,972230,1388708
1586931,971874,1387911
1586922,971610,1388422
1586796,971496,1388467
1587317,971528,1388892
1587074,972263,1389562
1587000,972774,1389607
1587000,973262,1390253
1587110,973255,1389410
1587304,973381,1389774
1587164,973036,1389102
1587168,972880,1389156
1587219,972472,1388131
1587384,971257,1387522
1587423,970946,1387262
1587562,970966,1386809
1587492,970820,1386723
1587478,970692,1385698
1587499,970546,1385534
1587591,970601,1383861
1587375,970246,1383201
1587639,970196,1383312
1587765,969730,1382879
1587416,969532,1382991
1587139,969112,1383112
1587283,969000,1382893
1586968,968669,1383121
1586654,968494,1382804
1586210,968024,1382324
1586210,966887,1383273
1586139,965790,1383669
1585968,964853,1383368
1586102,964073,1384101
1585759,963454,1383639
1585851,963282,1383655
1585720,964840,1382977
1585709,966387,1382275
1585863,967399,1380619
1585954,968139,1379617
1585724,968742,1377528
1585870,969845,1376448
1586101,971420,1374941
1586184,973468,1374803
1586379,972912,1374948
1586185,972565,1374351
1586352,973130,1372522
1586661,973756,1371890
1586249,974738,1369986
1586296,975884,1370161
1586256,976551,1369297
1586665,977383,1369140
1586851,978079,1367946
1586957,978873,1368665
1587002,979305,1368062
1587061,979873,1367759
1586948,980951,1368330
1587459,984472,1367226
1587752,985288,1367513
1588210,985003,1366741
1588193,983683,1366960
1588262,983953,1366707
1588602,983374,1366319
1588565,983571,1366631
1588463,983672,1367093
1588259,984045,1366446
1588811,984345,1366948
1588587,984741,1366691
1588927,984903,1367570
1588820,984359,1366681
1588777,983081,1366172
1588543,981342,1365777
1588778,980089,1370024
1588446,979034,1366997
1589085,978401,1366321
1588883,977999,1366182
1588961,977539,1366143
1588830,977348,1365710
1588962,977450,1363948
1589095,977558,1363678
1588678,976973,1363711
1588355,975929,1362368
1588355,975219,1362476
1588673,974588,1362492
1588759,974192,1363279
1589071,974095,1362351
1588694,973850,1361812
1588864,974010,1362179
1588987,975202,1362280
1589286,975921,1362038
1589107,976188,1361761
1589154,976015,1361700
1589052,975411,1360885
1588845,974344,1365207
1588582,973747,1362715
1588550,973030,1362555
1588526,972412,1361613
1588566,971957,1361452
1588141,971832,1360120
1588044,971843,1359497
1587929,972053,1358465
1588169,971790,1356739
1587820,971864,1357027
1587579,972057,1356805
1587252,972740,1356729
1587252,973389,1358051
1587748,974305,1356994
1587800,974816,1357305
1587779,974693,1357712
1587688,974834,1357841
1587842,975493,1357897
1587696,974897,1358160
1587809,974050,1358691
1587826,973662,1358757
1587927,972998,1360399
1587417,972184,1359479
1587409,971671,1358330
1587607,971971,1359137
1587941,972397,1359865
1587918,972978,1359232
1587974,973678,1358829
1587707,974328,1359006
1587707,974845,1359576
1587991,975182,1358749
1588169,975013,1357925
1587640,975033,1357968
1587640,974592,1356746
1587571,973870,1356734
1587377,972810,1356435
1587688,972054,1357019
1587426,971414,1357278
1587430,970795,1357584
1587183,970778,1357845
1587634,971406,1358665
1587438,971843,1359033
1587618,972103,1360200
1587564,972285,1359015
1587779,972315,1358994
1587565,972395,1359669
1587687,972565,1364072
1587672,972846,1360374
1587785,973531,1361295
1588095,974360,1360761
1588213,974873,1361353
1588113,974683,1360901
1588173,974497,1361405
1588195,974035,1362277
1588386,973555,1361729
1587994,972589,1362961
1587994,971624,1363203
1588131,970521,1363679
1588035,969663,1364061
1588108,968834,1365124
1587880,968095,1364662
1588124,967575,1365558
1587960,968038,1365437
1588166,968684,1367342
1588189,969341,1367230
1588383,969897,1368863
1588094,969932,1369303
1588282,970397,1370967
1588293,971135,1369208
1588412,971743,1369319
1588508,972484,1369604
1588872,973349,1370249
1588883,973849,1370050
1588980,974004,1371539
1588764,974176,1371305
1589201,973840,1372906
1588902,973726,1372195
1588568,973510,1371291
1588568,973189,1372297
1588280,973463,1371939
1588380,973539,1373283
1588454,973625,1373092
1588285,973955,1374876
1588237,974287,1373579
1588073,975157,1374725
1588006,975706,1372807
1588025,975911,1374114
1588148,975950,1373353
1588007,976024,1374998
1588222,975944,1373420
1588034,975945,1373841
1587982,975937,1373987
1587807,975808,1374944
1587980,975573,1374800
1588284,975167,1374902
1588342,974522,1375057
1588212,974091,1375633
1588253,973849,1375189
1588017,973805,1374617
1588312,973847,1374412
1588104,974172,1374322
1588047,974485,1373714
1588047,974792,1374392
1588061,974866,1374222
1588080,974926,1373149
1587995,973899,1373079
1587742,972558,1372654
1587768,971354,1372463
1587665,969389,1372563
1587514,968792,1373571
1587746,967948,1372533
1587486,967444,1372147
1587427,967193,1371212
1587170,966472,1370943
1587241,966193,1370522
1587423,965900,1369826
1587361,965825,1369356
1587647,965949,1369800
1587827,967213,1369039
1587972,968589,1369512
1587991,970049,1369011
1587881,970439,1369170
1588373,970892,1369243
1588506,971366,1368965
1588215,971897,1368863
1587969,972177,1367788
1588037,972321,1367316
1588262,972475,1366645
1588428,972642,1366801
1588411,972728,1365468
1588507,972565,1365200
1588459,972534,1365129
1588446,972465,1364430
1588634,972094,1364935
1588870,971666,1364113
1588941,971308,1364447
1588827,971302,1364057
1588968,971568,1364444
1589161,971984,1365045
1589184,973020,1364792
1589214,973932,1364901
1588897,974536,1364775
1588897,974878,1365214
1589170,975056,1365338
1589331,975084,1365122
1589220,974919,1366676
1589419,974448,1365806
1589226,973911,1367055
1589097,970966,1368210
1588689,969735,1370010
1588641,968418,1370095
1588440,967330,1369904
1588244,966505,1370710
1587879,965843,1370768
1587843,965563,1370464
1587792,965681,1371379
1587562,965543,1371339
1587642,965385,1370757
1587590,965168,1371584
1587391,965198,1370782
1587432,965488,1372091
1587339,965724,1371099
1587326,966442,1371012
1587135,966979,1371150
1587135,967375,1371182
1587225,968179,1371385
1587246,968712,1370954
1587395,969683,1371498
1587343,970122,1371565
1587532,970763,1372009
1587250,971921,1372393
1587482,972435,1372975
1587496,972875,1373053
1587532,973063,1373059
1587384,972720,1372172
1587338,971758,1372058
1587040,971030,1372249
1587365,970622,1372825
1587258,970335,1372179
1587541,970278,1372510
1587430,970529,1371679
1587714,970435,1372408
1587372,970623,1372183
1587498,970651,1372886
1587378,970830,1371821
1587307,970631,1372603
1587307,970534,1372147
1587137,970263,1372391
1587340,969721,1372135
1587178,969179,1372367
1587427,968845,1372442
1587341,967730,1371861
1587225,966017,1373269
1586903,965419,1372306
1587088,964342,1373164
1587090,963885,1372782
1587196,963216,1373306
1586846,962488,1372514
1586905,962007,1373809
1586975,962001,1372295
1587112,961729,1372835
1587202,961587,1372341
1587255,960994,1372924
1587024,960559,1372869
1587215,960456,1373135
1587134,960635,1373823
1587331,960691,1373728
1586948,961070,1374285
1586988,961310,1374115
1586988,961242,1373724
1586822,961284,1374333
1587060,961875,1373838
1587097,962086,1373816
1587046,961945,1373818
1586908,961642,1372428
1586736,961751,1372509
1586867,961356,1371588
1586814,960557,1371272
1586919,959788,1370539
1586833,959346,1370557
1586927,958505,1370797
1586774,957878,1371087
1586742,957791,1371523
1586838,958077,1370707
1587132,958197,1370396
1586979,958566,1370589
1587074,959060,1370524
1586724,959313,1370406
1586737,959755,1369955
1586568,960156,1369984
1586506,960170,1369236
1585927,959828,1369419
1585927,959673,1368854
1585790,959646,1367583
1585392,959944,1367134
1585795,960728,1366580
1585736,961135,1365997
1585811,961532,1365815
1585359,963152,1366087
1585727,963928,1365848
1585605,964342,1365873
1585749,964448,1365395
1585529,964390,1368982
1585618,963716,1365561
1585163,963066,1365581
1585450,963035,1365743
1585570,962816,1366096
1585876,962628,1364662
1585781,962744,1364526
1585853,963106,1364395
1585822,963532,1364132
1586020,963879,1363211
1586266,964358,1363568
1585856,964113,1363472
1585450,963374,1363735
1585450,962898,1363615
1585426,962042,1363452
1585527,961110,1363245
1585504,960701,1362822
1585445,960102,1363426
1585516,959992,1363590
1585493,960200,1363307
1585511,960343,1362643
1585297,960089,1362391
1585370,959213,1361635
1585549,958906,1361951
1585418,958770,1362078
1585291,958853,1365551
1585358,958854,1361936
1585466,959267,1361873
1585821,959800,1361032
1585711,960743,1362096
1585840,960892,1362504
1585851,960580,1362751
1585942,960178,1362230
1585854,960530,1362612
1585738,960683,1362669
1585738,960823,1362915
1585562,961004,1363075
1585796,961164,1363845
1585664,961396,1363641
1585880,961306,1362741
1585831,961364,1363423
1586122,962396,1363435
1586079,962694,1363686
1586493,962558,1363558
1586296,962415,1363481
1586319,962134,1364650
1586332,961903,1367320
1586393,961993,1365721
1586429,961973,1366095
1586681,962180,1366204
1587104,962722,1367156
1587234,963258,1366621
1587135,964113,1367674
1587144,965072,1367137
1587145,965623,1367303
1587699,966468,1366911
1587546,967008,1366580
1587546,967291,1365883
1587512,968018,1364802
1587529,968385,1363748
