GREEN,RED,IR
1741027,1443096,1634033
1741036,1443313,1633994
1741469,1443253,1634613
1741297,1443546,1635124
1740967,1443591,1634410
1741073,1443386,1635876
1741427,1443320,1635474
1741258,1443577,1635535
1740930,1443475,1635044
1741126,1443263,1635001
1740685,1443027,1635611
1740899,1443283,1636495
1741014,1443117,1636265
1741351,1443296,1636341
1741389,1443322,1635652
1741488,1443228,1637324
1741076,1443176,1637308
1741222,1443383,1636098
1741426,1443312,1636198
1741102,1443977,1637416
1740830,1443548,1635761
1740830,1443602,1636585
1740942,1443327,1636421
1740993,1443073,1637130
1741337,1443272,1636570
1741039,1442404,1636064
1740906,1441666,1637087
1740741,1441048,1637146
1740472,1440736,1637767
1740340,1440519,1637468
1740375,1440434,1636820
1740272,1440044,1636775
1739789,1439627,1637229
1739658,1439619,1637082
1739673,1440023,1638212
1739689,1439678,1637284
1739754,1439561,1637841
1739662,1439625,1637895
1739514,1439233,1638328
1739246,1439105,1637480
1739260,1439236,1637419
1739134,1439131,1637052
1739215,1439232,1637434
1739116,1439065,1638305
1739047,1439113,1637414
1739016,1439180,1637618
1738595,1439448,1637220
1738634,1439366,1637597
1738488,1439546,1637690
1738679,1439212,1637312
1738478,1439205,1637385
1738711,1438787,1637354
1738276,1438696,1637033
1738580,1438677,1636802
1738501,1438642,1637491
1738675,1438588,1637653
1738732,1438590,1637586
1738443,1438520,1637119
1738372,1438375,1636824
1738506,1438552,1636264
1738389,1438569,1636178
1738267,1438877,1636771
1738058,1439222,1635694
1738058,1438792,1635255
1738111,1438914,1635070
1738023,1438733,1634527
1738162,1438925,1635034
1738151,1438604,1635110
1738013,1438479,1634803
1738111,1438666,1634997
1738146,1438848,1634719
1738062,1438676,1634566
1738111,1438797,1634331
1738070,1439329,1635068
1738061,1438859,1634826
1737986,1438703,1635144
1738106,1438690,1635195
1738156,1438724,1636397
1738136,1438978,1635411
1738502,1438907,1635394
1738290,1438736,1636181
1738504,1438752,1635865
1738498,1438900,1635471
1738593,1439019,1636571
1738603,1439314,1637004
1738205,1439464,1636709
1738205,1439093,1635476
1738360,1439167,1635842
1738394,1439156,1635598
1738578,1439404,1635595
1738464,1439231,1635613
1738695,1439012,1635239
1738668,1439321,1635478
1738508,1438924,1635276
1738535,1439052,1635622
1738524,1438767,1635063
1738199,1438332,1635411
1738060,1437886,1635798
1737970,1437630,1635460
1738035,1437592,1635728
1738167,1437399,1635888
1738357,1437283,1634991
1737999,1437237,1636031
1737930,1437103,1635536
1737437,1437092,1636835
1737809,1437214,1635953
1737805,1437637,1636145
1737306,1437822,1635843
1737306,1437577,1636238
1737290,1437530,1635834
1737229,1437692,1636691
1737149,1437676,1635638
1737468,1437662,1635876
1737441,1437645,1635734
1737284,1438130,1635875
1737111,1438540,1636464
1737322,1438688,1635902
1737395,1439012,1637142
1737400,1438840,1637442
1737408,1438618,1636903
1737450,1438120,1636747
1737594,1438337,1636874
1737636,1438312,1636125
1738120,1438375,1636534
1738131,1438187,1636890
1737822,1438244,1636888
1738171,1438100,1636556
1737821,1438318,1637438
1738052,1438023,1636225
1737872,1438402,1637227
1737669,1438337,1636298
1737669,1438236,1636028
1737586,1438072,1634949
1737501,1438142,1635397
1737610,1438173,1635639
1737484,1437989,1635416
1737494,1437684,1637018
1737595,1437943,1635083
1737349,1438120,1635280
1737484,1438004,1635408
1737474,1438146,1635250
1737464,1438065,1634766
1737193,1437665,1635080
1737351,1437731,1635031
1737329,1437817,1635530
1737518,1437785,1634989
1737774,1437936,1634853
1737783,1437410,1634147
1737780,1437681,1634848
1738019,1437711,1634850
1737957,1437839,1634553
1737887,1438241,1634106
1737623,1438259,1635861
1737556,1438249,1635099
1737556,1437873,1634401
1737571,1438343,1633712
1737671,1438479,1634707
1737769,1438308,1634551
1737918,1438190,1634957
1737681,1438387,1635419
1737887,1438622,1634772
1737771,1438373,1634959
1737976,1438648,1635425
1737949,1438715,1635155
1738045,1438357,1635420
1737885,1438190,1635504
1738034,1438157,1634982
1738208,1438015,1634704
1738545,1437854,1634325
1738336,1437513,1635106
1738511,1436978,1635267
1738173,1436813,1635983
1738416,1436869,1635499
1738485,1436547,1635111
1738401,1436594,1634936
1738401,1436396,1635515
1737927,1436179,1635048
1738109,1436338,1635167
1737759,1436351,1635171
1738150,1436042,1635285
1738036,1435899,1635938
1737774,1436096,1635207
1737854,1436360,1635706
1738067,1436799,1635169
1738143,1436873,1635050
1738140,1436740,1634731
1737934,1436689,1635462
1738004,1436492,1635868
1737954,1436755,1636026
1738367,1436881,1635798
1738885,1437068,1636161
1738822,1437034,1635397
1738468,1437169,1635775
1738464,1437246,1635983
1738733,1437353,1635950
1738607,1437431,1635856
1738706,1437570,1636035
1738304,1437601,1636443
1738304,1437609,1637354
1738225,1437360,1636385
1738420,1437631,1635887
1738372,1437436,1635723
1738405,1437670,1635357
1738210,1437902,1634975
1738632,1437783,1634300
1737921,1438034,1634300
1738269,1438228,1633770
1738414,1438334,1633487
1738541,1438467,1633181
1738404,1438140,1634174
1738433,1438244,1634061
1738930,1438244,1634303
1739133,1438528,1633235
1738981,1438603,1634054
1738843,1438457,1634357
1738828,1438426,1634571
1738958,1438658,1634453
1738930,1438599,1635214
1738856,1439063,1634702
1738692,1439034,1634082
1738692,1438480,1634796
1738916,1438752,1634884
1738350,1439150,1634076
1739051,1439163,1634632
1739138,1439103,1634899
1739097,1438888,1634619
1739586,1439047,1634425
1739386,1439241,1634626
1739253,1439361,1635113
1739344,1439623,1634934
1739219,1439434,1634779
1739208,1439386,1635127
1739296,1439242,1634273
1739515,1439604,1634992
1739580,1439605,1634949
1740016,1439653,1634706
1739935,1439662,1634540
1739833,1439223,1635852
1739630,1439191,1636253
1739860,1439574,1636915
1739880,1439365,1636648
1739513,1438976,1636542
1739513,1438599,1636003
1739201,1438489,1636024
1739546,1438507,1636349
1739507,1438525,1636072
1739704,1438309,1636090
1739591,1438040,1635975
1739390,1438230,1635961
1739550,1438456,1637412
1739610,1438541,1636650
1739638,1438576,1636853
1739818,1438735,1635899
1739716,1438769,1637207
1739569,1439001,1636877
1739615,1439117,1637314
1739733,1439214,1636470
1739582,1439371,1635944
1740077,1439265,1635865
1739827,1439347,1636466
1739864,1439585,1636160
1740090,1439752,1636741
1740200,1439627,1637220
1740383,1440029,1636276
1739816,1441675,1637516
1739816,1440409,1637711
1739837,1439917,1638192
1739901,1439917,1638690
1739965,1439908,1637262
1739957,1439731,1637113
1740137,1439552,1637216
1740290,1439969,1637531
1740096,1440151,1636980
1740343,1440351,1637442
1740435,1440417,1636299
1740342,1440251,1636104
1740327,1440059,1636512
1740080,1440280,1636286
1740300,1440402,1635562
1740472,1440420,1635379
1740874,1440372,1635134
1740823,1440662,1635666
1740626,1440460,1635344
1740413,1440733,1635520
1740909,1440883,1635890
1741060,1441182,1635731
1740722,1441382,1635332
1740551,1441132,1636729
1740551,1440776,1635743
1740612,1441210,1635885
1740822,1441437,1635287
1741059,1441770,1635150
1740764,1441428,1634573
1740743,1441477,1635417
1740888,1441713,1634938
1741027,1442011,1634798
1741015,1442156,1635709
1741022,1442198,1635525
1741208,1442042,1635495
1741266,1441723,1635397
1741133,1441748,1636055
1741191,1441951,1635636
1741568,1442148,1636026
1741641,1441991,1635568
1741559,1442114,1635734
1741764,1442027,1635773
1741579,1442267,1636711
1741640,1442061,1635837
1741379,1442346,1636032
1741121,1442335,1635839
1741121,1442063,1636593
1741159,1441914,1636471
1741309,1441737,1637191
1741173,1441608,1637028
1741465,1441250,1638082
1741344,1440882,1637358
1741303,1441289,1637411
1741138,1441683,1637904
1741264,1441513,1637554
1741315,1441888,1637870
1741366,1441771,1637273
1741055,1441597,1638253
1741247,1441886,1638029
1741314,1442168,1637660
1741534,1442179,1637983
1742022,1442152,1638404
1742100,1442456,1638161
1742119,1442365,1638446
1741828,1442647,1638256
1741702,1442789,1638397
1742039,1442822,1637556
1741785,1443166,1638158
1741785,1443108,1637072
1741660,1443351,1638975
1741669,1443177,1639079
1741774,1443303,1638566
1741755,1443028,1637512
1742077,1442783,1637462
1741862,1442658,1637360
1741964,1442746,1637609
1741942,1442800,1638205
1742248,1442978,1637720
1742059,1443135,1638345
1742066,1443036,1638020
1741906,1442856,1637745
1742151,1443014,1637649
1742099,1443001,1638208
1742498,1443086,1637902
1742480,1443124,1637127
1742248,1443216,1636619
1742483,1443318,1636873
1742567,1443658,1636080
1742769,1443779,1636571
1742484,1443907,1636358
1742135,1444036,1635920
1742135,1444063,1635470
1742346,1444239,1636302
1742321,1444423,1635869
1742398,1444344,1636240
1742341,1444137,1635581
1742431,1444182,1634720
1742275,1444506,1635487
1742493,1444639,1635110
1742408,1444745,1635427
1742703,1444775,1635123
1742745,1444784,1635292
1742753,1444760,1636157
1742579,1444865,1636044
1742587,1444721,1635031
1742836,1444962,1635766
1743068,1445169,1635510
1743098,1445085,1635785
1743122,1445012,1635453
1743082,1445151,1635671
1742864,1445283,1635280
1742990,1445118,1635803
1742766,1444402,1635238
1742907,1444530,1636524
1743091,1444345,1635345
1742582,1444492,1636587
1742700,1444528,1636161
1742705,1444560,1635198
1742805,1444478,1634804
1742807,1444704,1636113
1742987,1444825,1634389
1742828,1444668,1635704
1742675,1444588,1635393
1742610,1444903,1636044
1742825,1445146,1635972
1743096,1445098,1636324
1743005,1445049,1635929
1743082,1445133,1636196
1743240,1445216,1636163
1743216,1445632,1636246
1743134,1445877,1636172
1743000,1446311,1636358
1742759,1446393,1637199
1742759,1445820,1637531
1742926,1445936,1637087
1742892,1446063,1636165
1743047,1446026,1636014
1743162,1445797,1636418
1742925,1445725,1637276
1743028,1445842,1636749
1742954,1445965,1637046
1742910,1445762,1636421
1743111,1445950,1636928
1743064,1445876,1636645
1742886,1445761,1636476
1742792,1445651,1637199
1742968,1445916,1636447
1743206,1445999,1636794
1743448,1446349,1636914
1743491,1446367,1637280
1743465,1446298,1636874
1743440,1446494,1637695
1743438,1446519,1637024
1743482,1446853,1637106
1743036,1446838,1637196
1743036,1446839,1636977
1743188,1446971,1636132
1743255,1447015,1635544
1743100,1447148,1635930
1743249,1447205,1635253
1743315,1447050,1635396
1743238,1447167,1634943
1743360,1447383,1634114
1743308,1447969,1633620
1743333,1447938,1633833
1743274,1448026,1633924
1743489,1447785,1633576
1743147,1447675,1633640
1743434,1448107,1633227
1743278,1448034,1632467
1743649,1448138,1633352
1743615,1448073,1633105
1743643,1448026,1632865
1743465,1447827,1632844
1743383,1447909,1632757
1743151,1447404,1632819
1743159,1447594,1633089
1742823,1447551,1634036
1742823,1447436,1634433
1743204,1447186,1634160
1743089,1447180,1633862
1743417,1447197,1634751
1742873,1446953,1633744
1743143,1446624,1634329
1742958,1446841,1634610
1742977,1446991,1634607
1742849,1447161,1634417
1743149,1447784,1635122
1743003,1447961,1634193
1743337,1448384,1635050
1742502,1448617,1635197
1743187,1448842,1634795
1743253,1448757,1635548
1743374,1448256,1635748
1743732,1448269,1635117
1743495,1448249,1634322
1743321,1448789,1635085
1742778,1448881,1635597
1742701,1448917,1635255
1742730,1448857,1634746
1742964,1448940,1636233
1742903,1448748,1634817
1742818,1448749,1635294
1742679,1448527,1635048
1742632,1448482,1635512
1742903,1448661,1635782
1743002,1449066,1636344
1743194,1449550,1634919
1743131,1449372,1635173
1743157,1449119,1635128
1742793,1449699,1635497
1742392,1449409,1635999
1742445,1449920,1636738
1743063,1449579,1636738
1742819,1449869,1636974
1742615,1449905,1636819
1742748,1449923,1636925
1742751,1449915,1636553
1742693,1449929,1636496
1742872,1449579,1636979
1742355,1449181,1636831
1742702,1448975,1637154
1742652,1448877,1637814
1742905,1448960,1638421
1743194,1448619,1637466
1743201,1448166,1638505
1743512,1447901,1637307
1743228,1447920,1638979
1743115,1448091,1638782
1743131,1448165,1638477
1742827,1448460,1637858
1742487,1448205,1638232
1742487,1448311,1638337
1742705,1448380,1637717
1742644,1448469,1637226
1742788,1448409,1637770
1742611,1448572,1636021
1742518,1448356,1636561
1742674,1449066,1636994
1742592,1449124,1636133
1742651,1449120,1636608
1742601,1449231,1636587
1742673,1449322,1636636
1742509,1449088,1636896
1742492,1449303,1636951
1742445,1449093,1636345
1742871,1449297,1637030
1743112,1449284,1636146
1743044,1449259,1637097
1742773,1449097,1636895
1742729,1449332,1638062
1742903,1449228,1637594
1742734,1449564,1637148
1742473,1449726,1636426
1742473,1449983,1638607
1742531,1449691,1638287
1742582,1449376,1637591
1742677,1449871,1638173
1742194,1449456,1637578
1742457,1449388,1638364
1742494,1449764,1637499
1742612,1450049,1638399
1743150,1450041,1638029
1742740,1450147,1638968
1742571,1450074,1638958
1742291,1449899,1638505
1742398,1449983,1638580
1742318,1449978,1639186
1742536,1450142,1638633
1742643,1450409,1638617
1742805,1450418,1638418
1742838,1450326,1638600
1742751,1450356,1638567
1742894,1450631,1639076
1742737,1450666,1639071
1742518,1450807,1639237
1742518,1450732,1638452
1742552,1450999,1639355
1742448,1450659,1638219
1742530,1451044,1638402
1742611,1450863,1638744
1742474,1450378,1638347
1742456,1450307,1639380
1742694,1449849,1639010
1742335,1449817,1639083
1742356,1449836,1639235
1742444,1449874,1639941
1742530,1449415,1638699
1742269,1448824,1638691
1742392,1448920,1639401
1742255,1448811,1638969
1742467,1448821,1640019
1742787,1448821,1640155
1742666,1448773,1638726
1742352,1448669,1639241
1742469,1449037,1639293
1742362,1448833,1639357
1742415,1449264,1638873
1742111,1449474,1639886
1742111,1449343,1639990
1742024,1449531,1640346
1742035,1449830,1640749
1742106,1449911,1639805
1741943,1449737,1640823
1742075,1449511,1639945
1741834,1449617,1640300
1742053,1449800,1639546
1741872,1449829,1639570
1741953,1450141,1638896
1741672,1449967,1639332
1741731,1449589,1638413
1741686,1449479,1638001
1741803,1449642,1638042
1741957,1449647,1638205
1742302,1449891,1637659
1742161,1449949,1637836
1742118,1449575,1637085
1741746,1449766,1637499
1742016,1450025,1638198
1741856,1450229,1637645
1741609,1450342,1636620
1741609,1450415,1636789
1741481,1450879,1636174
1741851,1450474,1636549
1741756,1450332,1637421
1741919,1450301,1636544
1741931,1450360,1637003
1741588,1450620,1637501
1741345,1450825,1637797
1741197,1450798,1637484
1741369,1450848,1636637
1741359,1450870,1637100
1741455,1451116,1636890
1741434,1450779,1636734
1741173,1450730,1637288
1741337,1450982,1637488
1741297,1450977,1637545
1741585,1451191,1637218
1741711,1451224,1637332
1741664,1451322,1637049
1741945,1451153,1637337
1741698,1451395,1637775
1742000,1451334,1637531
1741533,1451661,1636713
1741370,1451704,1636494
1741370,1451694,1637025
1741269,1451682,1636622
1741431,1451862,1636792
1741268,1451656,1636868
1741256,1451489,1637004
1741331,1451008,1636998
1741339,1450744,1637307
1741328,1450884,1637160
1741206,1450425,1637262
1741114,1450210,1637369
1741236,1449513,1637118
1740658,1449440,1636153
1740906,1449721,1637092
1740535,1449933,1637679
1740163,1449537,1636920
1740513,1449920,1637975
1740744,1449951,1637303
1740643,1449873,1636957
1740412,1449956,1636801
1740131,1449986,1637347
1740165,1450164,1636525
1740045,1449948,1636435
1740234,1449891,1635672
1739990,1449546,1636567
1740007,1449145,1636553
1739589,1449044,1636340
1739848,1449180,1635924
1739898,1449289,1635822
1740213,1449298,1636040
1740199,1449187,1635848
1740162,1449227,1635687
1739969,1449349,1636267
1739980,1449391,1635204
1740220,1449504,1634087
1739859,1449857,1633360
1739481,1449937,1632907
1739481,1449966,1633311
1739399,1449859,1632993
1739530,1449829,1632014
1739531,1450141,1632119
1739578,1449745,1632188
1739579,1449657,1632232
1739562,1450078,1632046
1739630,1450330,1631882
1739475,1450392,1632056
1739485,1450812,1632018
1739556,1450787,1632247
1739413,1450524,1634223
1739329,1450690,1634643
1739315,1450694,1634874
1739434,1450746,1635338
1739723,1450876,1634917
1739771,1451064,1635571
1739738,1451089,1635468
1739543,1451300,1635175
1739750,1451405,1634706
1739418,1451513,1634858
1739023,1451906,1634738
1739023,1452176,1634547
1738872,1452225,1636273
1739033,1452374,1635584
1738968,1452328,1635106
1738964,1452317,1634286
1738650,1452035,1634647
1738713,1452268,1634642
1738616,1452602,1635248
1738698,1452467,1635015
1738777,1452704,1635104
1738712,1452267,1635443
1738439,1451738,1635852
1738426,1451562,1635327
1738550,1451229,1635767
1738569,1450837,1636108
1738732,1450729,1635568
1738445,1450426,1636945
1738343,1450329,1636487
1738693,1450150,1636334
1738619,1450249,1636308
1738281,1450330,1636674
1737954,1450421,1636504
1737581,1450254,1636664
1737581,1450363,1636827
1737390,1450241,1636899
1737486,1450472,1637488
1737503,1450295,1637689
1737386,1450052,1637041
1737306,1449801,1639408
1737160,1450062,1638778
1737326,1450390,1637097
1737180,1450484,1636996
1737096,1450416,1637833
1737076,1450230,1636799
1736957,1450122,1637200
1736643,1450357,1636909
1736749,1450149,1637143
1737330,1450200,1637152
1736963,1450206,1636867
1737265,1450082,1637253
1736908,1449951,1636575
1737005,1450179,1636785
1736746,1450065,1635693
1736872,1449994,1634878
1736561,1450441,1634712
1736561,1450102,1635029
1736507,1450509,1635029
1736324,1450400,1635498
1736329,1450680,1633677
1736570,1453444,1633997
1736219,1450858,1632133
1736193,1450188,1633432
1736121,1450170,1632325
1736040,1450279,1632280
1736310,1450450,1631704
1735754,1450232,1633578
1735781,1450491,1632160
1735624,1450344,1632395
1735761,1450419,1631988
1735872,1450478,1631891
1736394,1450444,1631653
1736154,1450219,1631807
1736009,1450381,1632390
1736057,1450056,1632092
1736012,1450361,1632227
1736258,1450418,1632849
1735907,1450726,1632244
1735399,1450726,1632593
1735399,1450617,1632626
1735487,1450621,1633437
1735647,1450522,1633498
1735688,1450653,1632632
1735652,1450238,1634050
1735590,1450142,1632868
1735451,1450222,1633359
1735506,1450433,1632906
1735493,1450656,1632864
1735605,1450919,1633134
1735386,1450419,1633155
1735502,1450264,1632569
1735352,1450207,1632825
1735388,1450365,1632964
1735523,1450434,1632671
1735958,1450716,1633498
1735727,1450712,1632804
1735682,1450269,1633939
1735743,1450235,1633576
1735784,1450060,1633916
1735896,1449825,1633140
1735210,1449784,1632945
1734899,1449415,1632819
1734899,1449127,1632668
1734845,1448847,1632879
1734860,1448875,1633018
1734772,1448377,1632430
1734709,1448043,1632898
1734428,1447934,1632759
1734070,1447992,1633954
1734195,1448312,1633321
1734010,1448494,1633771
1733819,1448506,1633525
1734248,1448442,1633319
1733823,1448130,1633096
1733729,1448467,1632557
1733677,1448337,1632971
1733723,1448416,1632798
1733828,1448471,1632678
1733947,1448566,1632409
1733980,1448283,1632175
1733633,1448354,1631244
1733557,1448387,1631200
1733953,1448624,1630451
1733303,1448688,1630438
1733303,1448745,1630238
1733203,1448823,1630137
1733073,1448540,1630698
1732950,1448421,1629954
1733147,1448251,1629234
1733099,1447941,1628114
1732785,1448094,1629277
1732534,1448176,1628965
1732515,1448182,1628376
1732443,1448429,1628519
1732434,1448487,1628429
1732239,1448134,1628640
1732159,1448245,1628815
1732132,1448158,1628010
1732251,1448250,1628415
1732670,1448351,1628405
1732293,1448745,1628691
1732252,1448652,1628306
1731989,1448709,1627780
1732148,1448714,1628199
1732380,1448646,1628272
1732192,1448513,1627418
1731747,1448791,1627885
1731458,1448876,1628059
1731608,1448841,1628481
1731673,1448939,1627951
1731744,1448859,1627385
1731796,1448651,1627291
1731594,1448469,1627233
1731410,1448293,1628166
1731533,1448672,1627577
1731732,1449176,1627870
1731508,1448732,1627669
1731236,1448759,1627639
1731458,1448345,1627578
1731365,1448489,1628150
1731208,1448654,1627780
1731151,1448234,1627510
1731006,1448192,1626603
1730910,1447716,1627299
1730595,1446814,1627840
1730231,1446680,1627816
1730402,1447043,1627822
1729855,1446627,1627335
1729681,1446714,1627537
1729642,1447028,1627947
1729415,1446758,1627759
1729550,1446761,1628453
1729617,1446787,1628548
1729406,1447149,1628658
1729148,1447006,1628433
1729262,1446638,1628253
1729132,1446538,1629229
1729149,1446843,1629391
1729043,1446669,1628328
1729060,1446280,1629183
1728848,1446271,1629765
1728815,1446398,1629380
1728791,1446298,1629300
1729116,1446524,1629117
1728889,1446329,1629123
1728842,1446249,1629070
1728751,1446192,1628679
1728578,1446368,1628634
1728640,1446538,1628480
1728521,1446869,1628764
1728521,1446650,1627397
1727914,1446710,1626750
1728092,1446709,1626097
1727962,1447438,1626303
1728232,1446738,1626525
1728042,1446441,1627303
1728029,1446601,1625941
1727573,1446416,1625752
1727824,1446374,1625500
1727819,1446753,1625199
1727915,1446890,1624689
1727891,1446638,1624294
1727918,1446500,1624199
1727655,1446684,1624132
1727842,1446681,1625076
1728077,1446820,1624460
1728039,1446714,1624920
1728013,1446639,1624175
1728200,1446470,1623604
1728005,1446782,1623337
1727920,1446681,1623096
1727662,1446868,1623198
1727530,1447131,1623092
1727530,1447236,1622378
1727444,1447122,1622281
1727699,1447116,1621766
1727895,1447143,1622971
1727608,1446801,1621955
1727576,1446674,1621452
1727466,1446767,1621861
1727453,1446962,1621878
1727560,1447048,1622436
1727216,1447133,1623113
1727267,1447100,1622374
1727162,1446897,1621945
1727198,1446901,1621783
1727697,1446787,1621604
1727424,1448817,1621212
1727451,1446987,1621353
1727463,1446140,1622179
1727443,1445622,1622039
1727054,1445284,1622256
1727136,1445198,1621714
1726785,1445239,1621805
1726481,1444959,1622277
1726481,1445004,1622397
1726435,1444933,1622300
1726237,1444908,1622402
1726329,1444943,1622497
1726304,1444574,1622491
1726342,1444405,1621752
1725881,1444478,1621732
1725938,1444752,1621216
1725917,1444827,1621583
1725780,1444985,1621210
1725830,1444996,1621212
1725704,1444670,1619833
1725329,1444480,1620520
1725644,1444748,1621133
1725709,1444702,1621518
1726027,1444727,1621406
1725826,1444583,1621014
1725940,1444507,1621498
1725521,1444549,1621544
1725826,1444573,1622337
1725491,1444534,1621982
1725523,1444504,1621315
1725523,1444386,1620696
1724988,1444590,1621592
1725139,1444206,1620511
1725063,1444282,1620903
1725154,1444090,1620530
1724846,1443753,1620717
1724775,1443749,1619535
1724771,1443575,1619370
1724387,1443483,1618268
1724852,1443498,1619266
1724827,1443897,1617905
1724669,1443413,1616622
1724686,1443265,1616093
1724802,1443524,1616560
1724696,1443423,1615465
1725004,1443433,1615492
1725105,1443470,1615436
1725113,1443488,1615694
1725001,1443501,1615750
1724593,1443754,1615173
1725033,1443655,1615651
1725022,1443985,1615838
1724365,1444397,1616089
1724365,1444460,1615645
1724551,1444308,1616157
1724611,1444556,1616180
1724827,1444661,1616827
1724656,1444347,1617249
1724494,1443980,1617254
1724613,1444231,1617559
1724560,1444481,1617704
1724516,1444500,1617721
1724424,1444926,1618708
1724519,1444765,1617432
1724230,1444756,1617679
1724356,1445031,1617939
1724318,1445265,1617935
1724679,1445657,1617985
1724709,1445674,1618177
1724788,1445770,1618339
1724754,1445502,1618092
1724593,1445614,1618400
1724529,1445684,1618671
1724332,1446111,1618949
1724150,1446145,1618405
1724047,1446260,1618576
1724047,1446172,1618238
1724371,1446161,1619451
1724381,1446197,1619405
1724320,1445570,1620230
1724515,1445069,1620326
1724178,1444893,1619836
1723902,1444869,1619526
1723839,1444529,1620532
1724014,1444487,1619317
1723452,1444244,1619881
1723531,1444044,1619026
1723204,1444102,1619474
1723456,1444171,1619573
1723351,1444187,1619343
1723575,1444184,1619694
1723807,1444357,1619130
1723716,1444126,1620270
1723569,1444259,1619659
1723218,1444208,1620804
1723432,1444522,1620075
1723014,1444608,1620778
1722815,1444429,1621062
1722815,1444568,1620842
1722789,1444546,1621500
1722830,1444623,1621271
1722883,1444523,1622213
1722571,1444181,1622488
1722701,1444106,1621497
1722677,1444337,1621464
1722707,1444296,1621248
1722462,1444587,1621807
1722547,1444302,1621941
1722632,1444135,1621787
1722494,1443875,1621504
1722541,1443967,1621239
1722361,1443906,1621136
1722981,1444051,1620557
1722886,1443991,1620347
1722716,1443877,1619919
1722842,1443757,1619718
1722826,1443912,1619879
1722695,1443849,1619841
1722226,1444365,1619253
1722233,1444489,1619737
1722233,1444503,1619611
1722225,1444343,1619613
1722345,1444185,1619461
1721994,1444119,1619606
1722247,1443942,1619524
1722240,1444084,1621068
1722218,1444077,1620109
1722434,1444337,1620600
1722219,1444420,1621016
1722328,1444383,1621419
1722203,1444470,1620641
1722337,1443978,1620964
1722166,1443860,1621058
1722211,1444147,1621315
1722365,1444359,1621570
1722629,1444329,1622433
1722623,1444784,1621952
1722873,1444427,1621583
1722589,1444308,1621530
1722953,1444774,1622654
1722666,1444623,1623423
1722981,1444528,1623328
1722440,1444861,1624135
1722356,1445093,1623616
1722460,1444917,1624765
1722802,1445095,1624925
1722541,1445117,1624116
1722747,1445216,1624428
1722633,1444860,1624444
1722627,1444416,1624551
1722507,1444131,1623906
1722716,1443872,1625115
1722839,1443987,1626084
1722847,1443685,1625383
1722770,1443445,1625761
1722910,1442960,1626782
1722121,1442807,1627057
1721659,1442649,1626517
1721786,1442988,1626168
1722158,1442654,1626232
1721796,1442798,1626365
1722064,1442795,1626226
1721795,1443022,1626156
1721626,1442877,1626794
1721409,1442945,1627285
1721659,1442682,1627569
1721630,1442892,1627439
1721657,1443225,1627145
1721624,1442835,1628364
1721565,1442926,1628744
1721121,1442952,1629270
1721663,1442743,1628584
1722000,1443010,1629759
1722056,1442828,1628401
1722235,1442660,1629168
1722094,1442797,1629724
1721671,1442793,1628792
1722041,1443530,1628861
1721591,1443135,1629165
1721591,1443029,1628458
1721404,1443093,1627958
1721501,1442934,1628131
1721531,1443031,1628967
1721570,1442841,1628948
1721700,1442712,1628134
1721404,1442586,1628310
1721684,1442354,1628750
1721630,1442579,1628659
1721622,1442861,1628180
1721668,1442874,1628009
1721811,1442699,1628319
1721385,1442704,1628507
1721633,1443009,1628322
1721638,1442983,1628599
1721552,1443075,1628023
1721968,1443035,1628719
1722128,1442931,1628438
1722128,1442795,1629090
1722146,1443194,1629323
1722097,1443248,1630361
1721910,1443611,1629325
1721508,1443494,1629857
1721508,1443323,1630003
1721788,1443251,1631363
1721786,1443161,1631357
1721748,1443449,1630825
1721618,1443160,1631392
1721831,1443052,1631499
1721729,1443250,1631703
1721763,1443381,1631593
1721737,1443457,1632915
1721958,1443482,1632730
1721978,1443413,1632707
1721928,1442929,1632917
1721834,1443303,1633739
1721978,1443445,1633800
1721974,1443591,1633760
1722416,1443561,1634131
1722367,1443680,1633991
1722413,1443491,1634055
1722149,1443492,1634833
1722198,1443504,1634490
1722056,1443645,1635800
1721988,1443494,1635243
1721988,1443274,1635494
1721704,1443181,1635540
1721865,1442673,1636328
1721891,1442468,1635600
1721885,1442242,1636459
1721820,1441850,1636347
1721713,1441781,1636724
1721356,1441792,1639273
1721544,1441813,1637539
1721388,1442230,1638244
1721567,1442131,1637506
1721434,1441963,1637748
1721356,1441758,1637042
1721186,1442067,1638349
1721298,1442260,1638540
1721709,1442497,1639185
1721721,1442436,1639087
1721720,1442444,1639675
1721944,1442293,1639180
1721550,1442541,1640085
1721694,1442538,1640024
1721283,1442931,1639340
1721138,1443069,1639998
1721138,1443146,1639795
1721169,1443164,1639589
1721258,1442986,1639458
1721284,1443183,1640497
1721045,1442746,1639255
1721252,1442715,1639439
1721328,1442794,1639060
1721038,1443110,1639094
1721173,1442912,1639440
1720916,1442953,1639653
1721022,1443096,1638292
1721090,1442989,1639408
1720687,1442853,1638762
1720886,1442869,1639941
1721071,1442971,1639021
1721081,1443238,1639629
1721277,1443392,1638943
1721374,1443200,1639975
1721324,1443265,1639638
1721449,1443378,1640633
1721746,1443585,1639388
1721106,1444006,1639275
1720862,1443799,1639617
1720862,1444144,1640280
1720875,1443898,1640679
1721112,1444009,1639798
1721066,1443830,1639787
1721066,1443794,1639864
1720838,1443749,1640426
1720931,1444242,1639692
1720928,1444320,1641227
1720968,1444289,1640726
1721041,1444208,1641003
1721043,1444258,1641064
1721029,1444176,1640873
1721039,1444028,1640786
1721154,1444374,1641116
1721031,1444453,1641578
1721417,1444529,1640416
1721401,1444665,1640853
1721553,1444596,1641439
1721502,1444417,1641306
1721338,1444207,1640940
1721349,1444763,1640229
1721171,1445127,1639919
1720732,1445250,1640488
1720732,1445470,1640380
1721029,1445428,1640989
1720983,1445452,1640961
1721142,1445466,1641022
1720984,1445286,1640649
1721203,1445099,1641267
1721038,1445010,1641653
1720813,1445060,1641551
1720836,1444617,1641194
1720980,1444748,1640672
1721006,1444473,1640556
1720883,1443899,1641642
1720665,1443641,1642113
1720843,1443854,1642665
1720929,1443771,1642323
1721067,1443747,1641632
1721214,1443782,1642398
1721176,1443869,1642975
1721022,1443781,1643655
1720992,1444010,1643212
1720110,1444087,1643340
1720600,1444479,1644043
1720486,1444448,1643719
1720486,1444942,1643669
1720578,1445031,1642873
1720627,1445036,1643586
1720709,1445078,1642975
1720788,1445021,1642905
1720684,1444782,1642155
1720444,1445094,1641826
1720477,1445313,1641389
1720663,1445177,1641211
1720808,1445182,1641285
1720501,1445102,1641685
1721115,1445556,1641233
1720694,1445423,1642114
1720477,1445519,1641416
1720819,1445655,1641931
1720655,1445294,1641529
1720889,1445495,1641680
1720991,1445463,1641647
1720797,1445804,1641243
1720416,1445958,1641122
1720631,1446112,1641413
1720649,1446069,1641361
1720708,1446183,1642370
1720691,1446243,1642073
1720330,1445998,1642553
1720278,1445618,1642231
1720634,1445923,1642294
1720592,1445999,1643024
1721078,1446089,1642283
1720956,1445917,1642068
1721196,1445876,1642539
1721292,1445937,1642272
1721267,1446191,1642454
1721430,1445921,1643063
1721044,1446237,1643891
1720812,1446340,1643488
1720812,1446409,1643287
1720738,1446172,1643740
1720714,1446657,1643207
1721022,1446828,1643847
1720975,1446527,1643233
1720678,1446034,1643126
1720619,1446445,1642240
1720847,1446592,1643196
1720937,1446242,1643410
1721162,1446706,1643130
1721084,1446357,1643995
1721090,1445611,1642989
1720946,1445567,1643656
1720947,1445011,1644288
1720980,1444946,1644760
1721163,1444786,1644624
1721213,1444594,1644394
1721232,1444382,1643716
1721100,1444379,1644501
1721095,1444503,1644181
1720786,1444729,1644762
1720551,1444340,1645167
1721021,1444543,1644475
1721194,1444409,1643911
1720725,1444563,1644859
1720518,1444652,1644581
1720694,1444792,1644197
1720591,1444721,1643743
1720838,1444898,1644290
1720767,1444466,1643255
1720911,1444398,1643315
1720982,1444369,1643789
1720948,1444562,1643999
1720954,1444705,1643574
1721015,1444521,1643351
1721032,1444649,1643552
1721078,1444550,1643556
1721227,1444946,1643193
1720713,1444955,1643962
1721021,1445072,1643598
1720864,1444896,1642921
1720889,1444985,1643226
1720949,1445013,1642618
1721009,1444719,1643334
1720786,1444615,1642504
1721044,1444927,1642499
1720870,1444821,1641960
1721288,1444971,1642805
1721339,1444921,1642299
1721440,1444935,1642283
1721537,1444499,1641689
1721301,1444862,1643182
1721253,1444746,1642365
1721155,1445040,1642436
1720917,1445180,1641885
1720917,1445254,1641525
1720997,1445135,1642650
1721092,1444979,1642677
1720996,1445086,1643010
1721097,1444963,1642563
1721246,1444871,1642831
1721274,1444905,1642856
1721112,1445288,1643387
1721396,1445187,1643118
1721407,1444755,1643366
1721288,1444252,1643601
1721471,1443833,1643103
1721395,1443361,1642593
1720866,1443476,1643294
1721000,1443464,1643330
1721145,1443487,1644152
1720995,1443701,1643380
1720876,1443893,1643499
1720891,1443910,1643374
1720936,1444000,1644170
1720927,1444013,1643895
1720941,1444341,1643024
1720925,1444280,1643850
1720824,1444300,1643884
1720698,1444297,1643068
1720815,1444465,1643411
1720876,1444592,1644337
1721241,1444570,1644098
1721080,1444704,1644556
1721207,1444711,1643580
1721029,1444748,1644182
1720876,1444659,1643577
1720918,1444806,1645450
1720833,1445016,1645275
1720589,1444924,1645395
1720599,1444648,1644784
1720770,1444601,1645141
1721112,1444719,1645227
1720627,1444945,1644442
1720369,1445058,1644287
1720512,1445159,1645753
1720646,1445147,1645633
1720515,1445311,1645616
1720625,1445498,1645388
1720600,1445162,1645336
1720347,1445042,1646366
1720530,1445235,1646302
1720679,1445347,1647153
1720821,1445560,1646178
1720919,1445473,1646297
1720961,1445457,1645820
1720768,1445436,1646714
1720706,1445462,1646475
1720721,1445583,1646512
1720537,1445827,1646195
1720569,1445860,1646791
1720569,1445973,1646482
1720560,1445889,1646215
1720526,1446120,1645744
1720548,1446000,1646334
1720692,1446100,1645633
1720555,1445505,1645358
1720621,1445403,1644612
1720749,1445863,1644607
1720846,1445559,1645082
1720986,1445735,1646076
1720682,1445529,1645505
1720743,1445530,1645640
1720754,1445359,1645463
1720676,1445563,1645420
1720889,1445555,1646604
1720946,1445710,1646216
1720970,1445603,1645646
1721123,1445188,1646093
1721192,1444784,1645793
1721064,1444565,1645201
1721177,1444412,1646055
1720686,1444541,1646209
1720329,1444306,1646788
1720329,1444283,1646760
1720358,1443926,1646211
1720420,1443959,1646362
1720592,1443712,1646727
1720484,1443658,1646492
1720175,1443280,1646327
1720202,1443606,1646297
1720142,1443902,1647458
1720070,1443939,1647119
1720142,1444092,1646943
1720191,1444160,1646763
1719910,1443781,1646971
1719901,1443928,1647063
1719933,1444058,1647123
1720104,1444000,1647330
1720079,1444313,1648303
1720369,1444093,1647248
1720240,1444039,1647597
1720046,1444243,1647848
1719702,1444202,1647830
1719485,1444123,1648090
1719951,1444264,1648174
1719939,1444430,1647924
1719419,1444398,1647317
1719525,1444309,1648261
1719605,1444470,1648049
1719499,1444297,1648483
1719571,1444638,1648278
1719559,1444620,1647773
1719497,1444425,1647915
1719417,1444539,1648790
1719467,1444815,1648208
1719651,1444381,1649081
1719953,1444614,1648760
1719973,1444698,1648273
1719977,1444374,1648233
1719767,1444731,1647956
1719649,1444690,1648495
1719695,1444634,1649042
1718889,1445174,1649248
1718889,1445142,1649087
1719394,1444914,1649899
1719368,1445053,1649435
1719597,1444901,1649676
1719470,1444843,1650391
1719538,1444794,1650453
1719711,1445014,1649912
1719885,1445234,1649451
1719637,1445095,1649997
1719652,1445127,1649940
1719546,1445216,1649626
1719569,1444665,1648870
1719501,1444791,1648109
1719633,1444915,1647779
1719511,1444860,1647764
1720103,1445006,1647527
1719655,1444791,1647988
1720088,1444815,1647445
1720191,1444896,1647065
1720137,1444923,1647386
1720192,1444924,1646915
1719834,1444963,1647170
1719442,1444710,1646431
1719442,1444481,1647100
1719543,1444109,1647866
1719495,1444132,1647701
1719401,1443768,1647642
1719432,1443414,1648290
1719376,1443118,1647566
1719383,1443003,1648206
1719251,1443285,1648814
1719116,1443164,1648599
1719141,1443362,1648278
1719026,1443398,1649488
1718815,1442968,1648996
1718779,1443060,1648823
1719200,1443261,1648408
1718859,1443599,1648121
1718582,1443115,1649625
1718736,1443058,1648208
1719263,1443138,1649603
1718562,1443236,1649281
1718468,1443152,1649391
1718583,1443104,1649727
1718550,1443150,1649393
1718573,1443135,1649214
1718447,1442985,1649941
1718629,1442848,1650035
1718269,1442639,1650068
1718540,1442826,1650341
1718590,1442857,1650083
1718760,1442896,1650363
1718731,1442961,1651107
1718918,1442694,1650836
1718693,1442620,1652006
1718703,1442887,1649912
1718686,1442996,1650767
1718514,1443197,1650658
1718028,1443268,1651257
1718028,1443375,1650754
1718118,1443391,1649722
1718287,1443136,1650384
1718459,1443133,1650649
1718319,1442750,1650207
1718132,1442729,1650718
1718464,1442758,1651493
1718243,1443163,1650732
1718322,1442998,1650567
1718492,1443136,1651039
1718525,1442939,1651879
1718107,1442747,1651987
1718277,1442533,1651406
1718300,1442852,1651511
1718683,1442831,1651739
1718842,1442873,1651140
1718740,1442833,1651761
1718710,1442525,1651701
1718809,1442421,1651451
1718736,1442643,1650494
1718621,1443141,1650627
1718391,1443165,1650239
1718391,1443202,1649876
1718389,1443116,1649431
1718738,1443012,1649536
1718405,1442590,1649962
1718482,1442298,1649030
1718501,1441953,1651429
1718222,1441468,1649964
1717998,1441638,1649779
1717959,1441283,1649179
1717985,1441088,1649215
1717809,1440852,1649428
1717854,1440540,1649259
1717733,1440544,1648662
1717599,1440535,1649099
1717572,1440604,1648233
1718056,1440730,1648679
1717846,1440683,1648479
1717507,1440587,1649053
1717519,1440656,1648780
1717885,1440788,1649790
1717880,1440821,1650027
1717414,1441121,1650135
1717378,1440733,1649258
1717378,1440822,1648870
1717232,1440865,1649494
1717356,1440956,1649158
1717317,1440962,1649095
1717365,1440746,1649043
1717131,1440580,1649832
1717351,1440726,1649075
1717271,1440884,1649540
1717065,1440588,1649660
1717098,1440635,1649547
1716991,1440512,1649929
1716704,1440155,1650020
1716969,1440041,1650631
1716931,1440098,1650040
1717034,1440010,1649273
1717121,1440054,1649182
1717074,1439912,1650082
1716816,1439893,1650599
1716917,1439814,1649299
1717065,1439887,1649074
1716899,1439981,1648739
1716648,1440188,1649515
1716397,1439979,1649736
1716397,1439794,1648532
1716583,1439871,1650163
1716816,1439833,1649387
1716803,1439668,1650077
1716663,1439599,1649988
1716445,1439511,1649795
1716508,1439466,1649559
1716406,1439901,1650802
1716624,1439628,1650370
1716485,1439631,1650293
1716716,1439462,1650377
1716501,1439195,1650218
1716646,1439300,1651661
1716593,1439217,1650742
1716725,1439311,1649987
1716998,1439360,1650076
1717075,1439207,1650349
1716771,1439035,1651014
1716972,1439057,1649164
1716912,1439019,1649418
1716920,1439294,1649105
1716701,1439406,1649788
1716701,1439126,1649723
1716799,1438918,1649310
1716758,1438984,1649278
1716884,1439213,1649179
1716851,1438923,1649868
1716878,1438808,1649582
1716976,1438662,1649906
1716905,1438592,1650074
1716645,1438298,1650209
1716880,1437865,1649907
1716701,1437563,1649726
1716726,1437038,1650256
1716271,1436625,1651218
1716496,1436605,1650600
1716065,1436449,1650410
1716699,1436255,1650952
1716604,1435949,1651167
1716446,1435821,1651090
1716251,1435780,1650549
1716211,1435982,1650247
1715964,1435772,1650892
1716037,1436106,1650619
1715565,1436097,1650372
1715565,1435942,1650979
1715599,1435945,1651106
1715506,1435928,1650869
1715669,1436078,1650205
1715658,1435584,1650940
1715583,1435436,1650870
1715342,1435478,1650275
1715532,1435646,1650537
1715341,1435512,1650530
1715557,1435799,1650339
1715372,1435616,1650708
1715339,1435150,1651219
1715032,1435191,1650786
1715254,1435015,1651157
1715242,1434872,1651089
1715493,1434877,1651141
1715362,1434787,1651868
1715448,1434508,1651723
1715280,1434640,1650605
1715284,1434770,1651075
1715088,1435029,1651097
1714843,1434905,1650700
1714497,1434668,1651213
1714497,1434445,1650892
1714657,1434287,1650712
1714657,1434376,1650613
1714716,1434295,1651568
1714762,1434140,1651544
1714578,1433988,1651598
1714632,1434343,1652110
1714670,1434114,1651891
1714578,1434509,1651381
1714558,1434432,1651312
1714432,1434071,1651795
1714434,1433890,1651386
1714494,1434103,1651277
1714747,1434078,1651378
1714981,1434138,1650681
1714774,1433966,1650336
1714640,1433827,1650570
1714940,1433835,1650653
1714940,1433889,1649953
1715096,1433989,1649534
1714655,1434328,1649041
1714340,1434130,1649259
1714340,1434004,1649900
1714524,1433878,1650786
1714730,1434303,1650160
1714635,1433923,1649616
1714548,1433718,1649879
1714638,1433560,1650589
1714440,1433737,1650494
1714429,1434046,1650342
1714492,1434045,1650149
1714561,1434052,1650560
1714763,1433799,1650470
1714450,1433570,1649638
1714483,1433577,1650451
1714600,1433265,1650883
1714796,1433126,1650639
1714731,1432709,1651243
1714675,1432440,1651543
1714122,1432005,1651599
1714478,1432078,1651277
1714180,1431989,1650908
1714097,1431996,1650487
1713648,1431889,1650885
1713648,1431783,1651237
1713617,1431501,1650855
1713873,1431387,1650995
1713614,1431544,1652690
1713426,1431653,1650643
1713544,1431072,1651705
1713176,1431186,1651450
1713261,1431467,1650649
1713061,1431290,1651231
1713124,1431204,1651783
1712980,1431239,1651236
1712895,1431078,1651732
1712802,1431120,1651711
1712956,1431537,1651422
1712892,1431224,1652336
1713175,1431199,1652460
1713232,1430828,1652325
1713109,1430817,1651728
1712939,1430648,1652403
1712895,1430899,1651720
1713013,1430795,1651765
1712686,1431032,1651910
1712529,1431101,1652659
1712529,1431059,1651845
1712421,1430623,1652289
1712454,1430896,1651912
1712177,1430964,1652842
1712303,1430662,1651269
1712409,1430647,1651912
1712373,1430794,1651641
1712051,1430892,1652549
1711694,1430632,1651015
1712136,1430800,1650671
1712011,1430876,1650713
1712148,1430794,1649855
1711738,1430713,1649935
1711952,1430839,1650846
1712402,1431003,1650175
1712478,1431125,1649775
1712303,1431219,1648911
1712118,1430989,1649006
1712127,1430919,1649580
1712235,1431180,1649882
1712501,1431076,1648702
1711974,1431463,1649486
1711679,1431311,1647767
1711679,1431273,1648982
1711725,1431156,1649481
1711953,1431257,1649491
1712170,1431113,1648935
1712115,1431385,1647961
1712149,1431000,1649150
1711708,1430954,1648763
1712172,1432056,1649270
1711961,1431704,1649910
1712120,1431458,1649512
1712075,1431364,1648976
1712055,1431061,1649419
1712215,1431121,1648904
1712198,1431192,1649653
1712357,1431050,1649436
1712412,1431179,1649853
1712106,1431051,1649376
1712338,1430539,1650182
1712315,1430648,1648818
1712111,1430210,1649455
1712151,1430628,1649060
1711791,1430254,1649518
1711791,1429998,1648854
1711299,1429697,1649648
1711478,1429752,1649124
1711446,1429831,1650022
1711318,1429332,1650104
1711225,1428967,1649822
1711106,1429022,1649312
1711071,1429213,1649543
1711018,1429207,1649544
1710939,1429200,1649544
1710844,1429362,1649141
1710905,1429824,1648860
1710752,1429308,1649525
1710773,1429253,1649415
1710918,1429323,1649598
1711138,1429450,1648839
1710843,1429278,1649218
1710995,1429211,1649709
1711400,1429743,1650469
1710834,1429489,1649698
1710977,1429494,1650281
1710435,1429514,1649284
1710211,1429278,1650497
1710211,1428852,1649794
1710503,1428968,1650596
1710546,1429107,1650148
1710777,1428751,1648943
1710300,1428520,1648932
1710426,1428600,1649203
1710336,1428504,1648672
1710186,1428929,1648008
1710124,1428919,1648377
1710376,1428956,1648129
1710323,1428753,1647150
1709972,1428665,1647708
1710106,1428704,1648044
1710003,1428837,1647850
1710268,1428931,1647691
1710377,1428891,1647484
1710249,1428886,1647081
1710245,1428535,1647482
1710341,1428498,1648280
1710344,1428651,1646856
1710234,1429074,1647487
1709921,1429266,1648090
1709921,1429091,1647285
1709894,1428947,1647306
1710068,1429050,1647917
1710111,1429231,1647466
1710066,1428951,1648079
1709993,1428914,1647702
1710126,1429025,1647638
1709914,1429266,1647917
1710114,1429283,1647795
1710213,1429098,1648370
1710206,1429199,1648155
1709911,1428769,1647924
1709947,1429006,1649165
1710005,1428923,1648997
1710192,1428907,1649020
1710537,1429073,1649018
1710508,1428991,1648566
1710576,1428736,1648578
1710574,1428619,1648588
1710467,1428542,1648564
1710203,1428315,1648000
1709905,1428151,1649376
1709905,1427735,1648675
1709899,1427426,1648461
1709755,1427057,1649224
1709937,1427026,1649545
1709843,1426784,1649274
1709801,1426393,1649406
1709338,1426384,1649713
1709414,1426483,1649570
1709170,1426591,1649938
1709248,1426482,1649788
1709187,1426354,1649141
1709139,1426217,1649332
1708829,1425990,1650509
1708967,1425885,1650649
1708783,1425892,1650731
1709157,1425996,1650479
1709345,1425937,1650186
1709267,1425827,1650771
1709167,1426117,1651361
1708893,1425719,1651246
1708633,1425493,1650646
1708740,1425836,1649854
1708733,1425799,1650123
1708758,1425734,1649461
1708410,1425500,1648282
1708655,1425444,1647805
1708553,1425017,1648263
1708806,1425398,1647842
1708538,1424865,1647698
1708410,1424874,1647615
1708366,1424924,1647745
1708269,1424864,1647397
1708458,1425003,1647139
1708816,1425002,1646995
1708642,1424901,1647050
1708718,1424875,1647702
1708440,1425082,1647340
1708465,1425064,1647072
1708580,1425186,1646519
1708351,1424663,1646263
1708272,1424670,1646447
1708820,1424562,1647508
1708379,1424806,1647500
1708192,1424684,1646183
1708315,1424742,1645993
1708640,1424438,1646041
1708589,1424497,1646749
1708585,1424476,1647727
1708420,1424627,1646634
1708462,1425179,1647295
1708482,1425907,1646906
1708720,1426520,1648212
1708541,1427414,1647341
1708541,1427953,1647709
1708342,1428336,1646814
1708029,1429037,1646878
1707934,1429331,1646542
1707773,1429732,1647181
1707184,1430447,1647071
1706683,1430590,1647819
1706683,1431324,1647338
1706481,1431257,1646882
1706411,1431689,1646830
1705845,1431851,1647346
1705524,1431990,1648091
1704887,1431994,1647221
1703590,1432439,1646907
1703123,1432833,1647813
1702894,1432982,1647182
1702650,1433162,1647602
1702353,1432916,1647157
1702015,1432385,1647815
1702240,1432767,1647663
1702123,1432714,1647292
1702369,1432619,1646964
1702323,1432251,1647279
1702184,1431839,1647251
1702238,1430868,1647572
1702335,1430507,1649402
1702436,1429630,1648204
1702750,1429342,1647776
1702800,1428935,1648097
1702800,1428103,1648410
1703563,1427813,1648413
1703678,1427582,1649084
1704224,1427356,1649232
1704090,1427124,1650366
1704404,1427025,1648710
1704388,1427437,1648624
1704407,1427657,1648443
1704469,1427642,1649009
1704639,1428193,1649279
1704438,1427944,1647814
1704365,1427708,1647032
1704260,1427855,1647251
1704211,1427585,1646648
1704339,1427602,1646932
1704895,1427852,1646860
1704659,1427826,1646296
1704748,1427778,1646101
1704431,1427955,1645539
1704466,1428095,1645461
1704278,1428388,1644524
1703879,1428597,1645381
1703879,1428312,1645409
1703784,1428325,1646612
1704013,1428156,1644874
1704037,1428036,1645033
1704272,1427917,1644354
1704313,1427638,1645867
1704131,1427609,1645128
1704365,1427482,1645397
1704339,1427753,1645198
1704038,1427921,1646365
1704261,1427880,1645769
1704189,1427876,1645464
1704139,1427670,1645763
1703968,1427796,1645218
1704382,1427813,1645436
1704323,1427932,1644939
1704461,1428553,1645172
1704506,1428101,1645547
1704598,1427833,1646275
1704514,1427885,1645490
1704648,1427940,1646446
1704279,1428285,1645894
1704377,1428432,1646233
1704237,1428235,1646706
1704237,1428132,1646477
1704242,1428205,1646282
1704566,1428220,1646725
1704460,1428190,1646476
1704477,1428060,1647001
1704592,1428203,1646370
1704644,1427852,1646441
1704610,1428165,1646671
1704404,1427477,1646992
1704424,1426956,1647264
1703878,1426417,1647461
1703952,1426104,1647196
1704212,1426140,1646910
1704057,1426067,1647290
1704157,1426038,1646999
1704284,1425793,1648167
1704570,1425810,1647346
1704734,1425789,1647789
1704311,1425933,1647480
1704236,1425937,1647748
1703741,1425992,1648069
1703248,1426166,1648762
1703248,1426181,1648649
1703446,1426015,1648928
1703523,1426193,1648762
1703380,1426174,1649395
1703350,1425647,1649007
1702984,1425510,1648896
1703297,1426131,1649481
1703291,1426011,1649746
1703363,1425825,1648732
1703467,1426033,1648575
1703425,1425971,1648115
1703132,1425388,1647986
1702979,1425624,1647703
1703059,1425456,1647815
1702969,1425491,1647579
1703647,1425283,1646924
1703511,1425183,1646412
1703275,1425051,1646867
1702948,1424861,1646540
1702906,1424881,1645669
1703336,1425216,1646381
1703152,1425436,1646460
1703152,1425750,1646750
1702896,1425592,1646281
1702722,1425705,1646566
1702984,1425559,1647078
1702649,1425323,1646832
1702852,1425036,1646471
1702893,1425210,1647052
1702901,1425494,1646861
1703213,1425488,1647425
1703095,1425601,1647753
1702663,1425835,1647512
1702839,1425456,1647773
1702789,1425111,1647681
1702865,1425277,1647523
1703035,1425359,1647517
1703282,1425180,1648263
1703489,1425015,1648508
1703298,1425213,1648164
1702825,1425173,1648075
1703259,1425345,1648327
1703530,1425244,1648422
1703314,1426205,1648790
1703109,1425807,1648949
1703109,1425615,1648473
1703119,1425711,1648727
1703497,1425606,1649064
1703471,1425444,1649569
1703659,1425338,1649291
1703294,1424994,1648943
1703610,1425351,1649663
1703482,1425387,1649274
1703627,1425194,1649774
1703487,1425245,1649983
1703723,1425073,1650633
1703250,1424986,1650239
1703362,1425111,1650067
1703335,1425489,1649257
1703674,1425092,1650753
1703411,1424867,1649660
1703340,1424463,1649587
1703267,1424158,1649540
1702708,1423938,1649438
1703047,1423965,1648798
1702925,1423969,1648755
1702378,1424092,1649146
1702378,1423801,1649480
1702423,1423950,1650150
1702404,1423818,1650195
1702385,1423884,1650364
1702046,1423712,1650796
1702230,1423599,1650089
1702049,1424132,1649340
1702002,1424107,1649929
1701789,1424332,1649911
1701962,1424911,1649242
1701569,1425163,1648198
1701741,1425147,1648422
1701632,1425222,1647732
1701481,1425180,1647808
1701776,1425285,1647074
1701572,1425350,1646588
1701481,1425815,1646459
1701343,1425959,1647107
1701249,1426036,1646159
1701566,1426066,1646457
1701394,1426385,1646163
1701498,1426240,1647453
1701331,1426071,1647174
1701268,1425905,1646478
1701234,1426229,1646437
1701340,1426310,1647772
1701675,1426430,1647498
1701448,1426570,1647839
1701329,1426412,1647271
1701621,1426589,1646733
1701576,1426878,1648131
1701653,1426812,1648086
1701295,1427102,1649246
1701012,1427073,1648547
1701012,1426982,1648175
1701191,1427100,1649224
1701430,1427314,1648956
1701273,1427465,1648159
1701372,1427204,1649286
1701309,1427050,1648974
1701429,1427249,1648960
1701455,1427883,1649102
1701468,1428187,1648993
1701553,1428043,1649321
1701405,1428276,1649165
1701708,1428161,1648834
1701389,1428016,1648529
1701608,1428654,1649124
1701706,1428442,1649665
1701927,1428583,1649241
1701910,1428781,1649032
1701710,1428859,1649039
1701694,1428878,1649628
1701744,1428979,1649150
1701771,1428934,1649421
1701642,1429463,1649729
1701355,1429472,1648959
1701355,1429076,1649088
1701547,1428723,1649069
1701614,1428469,1650650
1701650,1428537,1650235
1701420,1428304,1650194
1701616,1428224,1649843
1701038,1428307,1650856
1701127,1428501,1650769
1700783,1428350,1650558
1701072,1428747,1650679
1700791,1428742,1650651
1700807,1428583,1650043
1700561,1428730,1650746
1700532,1428801,1651075
1700731,1429098,1651537
1701205,1429418,1650756
1701101,1429333,1650638
1700899,1429608,1650354
1700890,1429761,1650343
1700899,1429857,1649492
1700743,1430074,1649005
1700643,1430039,1647939
1700383,1430602,1646902
1700383,1430728,1647706
1700459,1430875,1647343
1700637,1431014,1648056
1700605,1430906,1647026
1700513,1430804,1647257
1700588,1430675,1646418
1700369,1431049,1646679
1700485,1431359,1645970
1700194,1431547,1646778
1700257,1431796,1646411
1700239,1431855,1646332
1700297,1431567,1645832
1700026,1431724,1647248
1700260,1432059,1646965
1700418,1432256,1646819
1700546,1432480,1646635
1700358,1432502,1647429
1700474,1432582,1647311
1699998,1432956,1647230
1700295,1433058,1647503
1700110,1433627,1646920
1700011,1433665,1648026
1699683,1433358,1647766
1699683,1433101,1648718
1700133,1433686,1648064
1700015,1434043,1647838
1700159,1433895,1647803
1700193,1433923,1648614
1700320,1434007,1648601
1700215,1434208,1648346
1700387,1434134,1647061
1700545,1434097,1649056
1700402,1434403,1647939
1700266,1434329,1648090
1700332,1434372,1649045
1700392,1434661,1649744
1700512,1434771,1648624
1700946,1434983,1649062
1700945,1434792,1648479
1700791,1434491,1649212
1700872,1434703,1649254
1700825,1434881,1648503
1701106,1435043,1649843
1700747,1435337,1648933
1700747,1435157,1649671
1700750,1435431,1649524
1700704,1435061,1649666
1700712,1434910,1649860
1700867,1434678,1650200
1700921,1434295,1649267
1700588,1434137,1650439
1700782,1433974,1650095
1700540,1433923,1651763
1700315,1433577,1650787
1700449,1433610,1651207
1700469,1433542,1650748
1700099,1433636,1651253
1700199,1434058,1651587
1700063,1434113,1651272
1700209,1434128,1650422
1700140,1434235,1650877
1700323,1434247,1649564
1700303,1434329,1650747
1700650,1434933,1649359
1700902,1434881,1649115
1700459,1435297,1649182
1699728,1435469,1649122
1699728,1435174,1648363
1700144,1435343,1648435
1700044,1435806,1647561
1700242,1435832,1648431
1700122,1435864,1647472
1700220,1435772,1647927
1700237,1435997,1647157
1700169,1436055,1647345
1700195,1436028,1647713
1700408,1436334,1647057
1700320,1436228,1648075
1700116,1436304,1647994
1699813,1436387,1647306
1700126,1436598,1647470
1699941,1436648,1647862
1700401,1436727,1647386
1700152,1436705,1647881
1700255,1436836,1647675
1700103,1436891,1648488
1700088,1436957,1648186
1700568,1437418,1649088
1700143,1437743,1647925
1700143,1437699,1648050
1700107,1437561,1648309
1700035,1437693,1648278
1699997,1437759,1649407
1700217,1437815,1649527
1700443,1437761,1649663
1700257,1438182,1649249
1700028,1438264,1649441
1700452,1438183,1649781
1700340,1438601,1649887
1700384,1438431,1649933
1700279,1438382,1649616
1700478,1438483,1650333
1700505,1438742,1650195
1700839,1438919,1649903
1700934,1438824,1649184
1700679,1438693,1649532
1700816,1438721,1650076
1701216,1439063,1650440
1701301,1438978,1651843
1701010,1439571,1651509
1700724,1439727,1650944
1700724,1439497,1650738
1700870,1439174,1651702
1701029,1439380,1652432
1701041,1439482,1652528
1701071,1438923,1652470
1700817,1438383,1652373
1700837,1438140,1652812
1700739,1438087,1653254
1700793,1438166,1653535
1700679,1437922,1653772
1700650,1437758,1653876
1700697,1437560,1653346
1700388,1437450,1653035
1700090,1437525,1654315
1700397,1437549,1655151
1700500,1437359,1654022
1700311,1437476,1654115
1700437,1437229,1654086
1700160,1437549,1655012
1700154,1437661,1654954
1700126,1438070,1654815
1700054,1438249,1654937
1700054,1437965,1654695
1699975,1438149,1654664
1699895,1438340,1656390
1699994,1438502,1655026
1700016,1438286,1654366
1700183,1438130,1654270
1699786,1438396,1653519
1699957,1438596,1652708
1700000,1438819,1653458
1700068,1438850,1652479
1700217,1438612,1652895
1700062,1438271,1652085
1699729,1438194,1652064
1699883,1438439,1652542
1699999,1438372,1652193
1700159,1438596,1651896
1700141,1438454,1651150
1699942,1438599,1651613
1700088,1438432,1651323
1699872,1438586,1651250
1699997,1438780,1651779
1699854,1438950,1651359
1699705,1438854,1651549
1699705,1438900,1653801
1699706,1438923,1653094
1699805,1439227,1652218
1699699,1439018,1652439
1699735,1438967,1652328
1699918,1438740,1652797
1699909,1439081,1653677
1699978,1439495,1653494
1700009,1439288,1652923
1699980,1439426,1652988
1700208,1439215,1653465
1699862,1438881,1652909
1700077,1438902,1653391
1699868,1438917,1653230
1700278,1438843,1653268
1700584,1438886,1653361
1700627,1438798,1653547
1700406,1438662,1653331
1700261,1438662,1653724
1700160,1438712,1654109
1700491,1438803,1653706
1700584,1438949,1653776
1700412,1438537,1653270
1700729,1438789,1653735
1700578,1438895,1654597
1700388,1438704,1654846
1700272,1439011,1654114
1700219,1439081,1654747
1700294,1439051,1654483
1700252,1438802,1655122
1700489,1438368,1654855
1700447,1438416,1655312
1700500,1438058,1654923
1700053,1437470,1656514
1700130,1437580,1655424
1699877,1437506,1655486
1700115,1437402,1655302
1700385,1437370,1656054
1700062,1437262,1654577
1699801,1437707,1656148
1699683,1437712,1655373
1699523,1438084,1655442
1699386,1438241,1655921
1699505,1438552,1655047
1699384,1438825,1655555
1698909,1438810,1655120
1699107,1438586,1656033
1699134,1438886,1655903
1699379,1438938,1656128
1699018,1439039,1656056
1699065,1438855,1656601
1698836,1438852,1655929
1698990,1438783,1655842
1699089,1439133,1655359
1699257,1439153,1655319
1699178,1438842,1654381
1699111,1438790,1655121
1699167,1438818,1654480
1699089,1438932,1655077
1699114,1438949,1653794
1698906,1439211,1653561
1698786,1438993,1653486
1698786,1438936,1653609
1698807,1438851,1653274
1698821,1438958,1653152
1699006,1438970,1653263
1698946,1438774,1653464
1698978,1438600,1653205
1698843,1438833,1653089
1698950,1439009,1654238
1698931,1439022,1653849
1698994,1439227,1654595
1699029,1438953,1653647
1698981,1438742,1654504
1698845,1438793,1653274
1699066,1438933,1654167
1699247,1438940,1654162
1699489,1439043,1654355
1699572,1439358,1653972
1699285,1438962,1654159
1699362,1438971,1655411
1699751,1439039,1655314
1699598,1439247,1654746
1699619,1439468,1654738
1699123,1439522,1655076
1699123,1439376,1655957
1699301,1439485,1654931
1699453,1439474,1654534
1699496,1439741,1655013
1699389,1439687,1654739
1699612,1439498,1654878
1699549,1439795,1654199
1699738,1440058,1654279
1699601,1440014,1655228
1699728,1440286,1655879
1699688,1440234,1655777
1699808,1439777,1656471
1699622,1439710,1655706
1700057,1439987,1655691
1699865,1439580,1656355
1700230,1439460,1655905
1700001,1439351,1655759
1699588,1438895,1656010
1699740,1437832,1656520
1699538,1438516,1656185
1699573,1438659,1655878
1699440,1438894,1656321
1699440,1438842,1656433
1699057,1438916,1657013
1698995,1438799,1657021
1699088,1439193,1656075
1699129,1439014,1656144
1698880,1438837,1656707
1698972,1438897,1656729
1698865,1439132,1657563
1698831,1439420,1657341
1698762,1439490,1656911
1698933,1439565,1657188
1698875,1439581,1657327
1698662,1439479,1657435
1698160,1439746,1657712
1698586,1439767,1657747
1698839,1439817,1657370
1699130,1439768,1657371
1698908,1439794,1657343
1699040,1439758,1658225
1698889,1439743,1658582
1698952,1439714,1656867
1698895,1439854,1656305
1698777,1440187,1655380
1698777,1440129,1655990
1698542,1439892,1655678
1698712,1440038,1655367
1698505,1440412,1655855
1698520,1440145,1654483
1698598,1439942,1655374
1698532,1440134,1654559
1698530,1440047,1654349
1698675,1440289,1655307
1698618,1440468,1654815
1698815,1440408,1654674
1698670,1440303,1654372
1698717,1440369,1654685
1698644,1440596,1655387
1698730,1440601,1655535
1698722,1440857,1655195
1699076,1440852,1656023
1698933,1441025,1656305
1698854,1440749,1656738
1699020,1441031,1655520
1699058,1441146,1655329
1698850,1441615,1655203
1699091,1441785,1655466
1699091,1441625,1656192
1698687,1441388,1655622
1699088,1441510,1656141
1699067,1441795,1656550
1699028,1441857,1655124
1699216,1441376,1655830
1698683,1441301,1655595
1698702,1441736,1656114
1699029,1442124,1656364
1699253,1441889,1657392
1699407,1441692,1656771
1699287,1441788,1656448
1699349,1441477,1656705
1699133,1441235,1657260
1699253,1441453,1656448
1699471,1441633,1656827
1699770,1441833,1656869
1699778,1441522,1656792
1699903,1441459,1656544
1699534,1441011,1656401
1699269,1439979,1656911
1699184,1439516,1657773
1699150,1439410,1657249
1699203,1439456,1657371
1698935,1439081,1657166
1698836,1438938,1656556
1699155,1438150,1657937
1699061,1438263,1657573
1699017,1438246,1657205
1698800,1438156,1657676
1698801,1438176,1658738
1698641,1438075,1657970
1699044,1437962,1657294
1698539,1438062,1657291
1699260,1437914,1658649
1698859,1437230,1658594
1699257,1437133,1659102
1699513,1437147,1658005
1699211,1437439,1657711
1698724,1437493,1658611
1698792,1437532,1658646
1698998,1437350,1658451
1698955,1437293,1659012
1698974,1437313,1657981
1698793,1436976,1657667
1698641,1436748,1658195
1698968,1436856,1657836
1698993,1436869,1657679
1699230,1437200,1656386
1699357,1437044,1656638
1699019,1437193,1656120
1698409,1437014,1655960
1698913,1437171,1656024
1699257,1436946,1655600
1698918,1437373,1656099
1698585,1437133,1656245
1698585,1436964,1656025
1698802,1436973,1655917
1699300,1437009,1655940
1699188,1437154,1656669
1699085,1436935,1656198
1699076,1436514,1656258
1699140,1436687,1655832
1699197,1436816,1657946
1699444,1436664,1655422
1699089,1436751,1655212
1699149,1436620,1655910
1699216,1436527,1657055
1699220,1436733,1657369
1699423,1437031,1657462
1699566,1436083,1657099
1699223,1435124,1655833
1699414,1435070,1656760
1699434,1434708,1656556
1699211,1434552,1657515
1699199,1434654,1656491
1699169,1434732,1656061
1698588,1434736,1655987
1698627,1434574,1656869
1698521,1434516,1656220
1698702,1434367,1657458
1698651,1434436,1656686
1698828,1434292,1656482
1698451,1433912,1656093
1698575,1434062,1656865
1698524,1434111,1657426
1698693,1434139,1657432
1698801,1434260,1656961
1698861,1434364,1657346
1698786,1434172,1656877
1698680,1434425,1657551
1698734,1434581,1657995
1699087,1434466,1657995
1698827,1434918,1658029
1698827,1434458,1658451
1698405,1434642,1658074
1698381,1434605,1658072
1698527,1434646,1658305
1698777,1434365,1658157
1698644,1434071,1657795
1698396,1433957,1658452
1698422,1434181,1658530
1698389,1434313,1658905
1698342,1434096,1659779
1698340,1434263,1658122
1698462,1434149,1659240
1698187,1433910,1658936
1698197,1433811,1659302
1698235,1433924,1659151
1698255,1433721,1659709
1698723,1434020,1660025
1698750,1433996,1659808
1698638,1433844,1659579
1698588,1434044,1659212
1698670,1434121,1660078
1698705,1434195,1659766
1698511,1434273,1658829
1698803,1434108,1658802
1699024,1433973,1658943
1698634,1433900,1657957
1698736,1434130,1658316
1698752,1434279,1658068
1698442,1434384,1658163
1698483,1434471,1657628
1698550,1434386,1658436
1698768,1434317,1658497
1698716,1434150,1657633
1698957,1434112,1657135
1698701,1433818,1657237
1698790,1433942,1657372
1698758,1433907,1658172
1699283,1434041,1657216
1699108,1434008,1658250
1699187,1434158,1657751
1699215,1433786,1658368
1699426,1433784,1658441
1699515,1433602,1657976
1699174,1433662,1659027
1698947,1433473,1658130
1698947,1432943,1658950
1698971,1432410,1658765
1698896,1432129,1659107
1698817,1432256,1658774
1698712,1431916,1659324
1698640,1431473,1658946
1698317,1431241,1659191
1698189,1431139,1659300
1698059,1431042,1659854
1698100,1431181,1660523
1697795,1431145,1659895
1697864,1430936,1659320
1697613,1430760,1659290
1697835,1430754,1659490
1697772,1430747,1659954
1698048,1430720,1660001
1697999,1430513,1660097
1697898,1430410,1660155
1697700,1430479,1659959
1697761,1430486,1661001
1697827,1430623,1661610
1697719,1430973,1661453
1697401,1430935,1660723
1697401,1430842,1661614
1697546,1430682,1661655
1697624,1430880,1661771
1697491,1430551,1661759
1697634,1430299,1662148
1697524,1430230,1662090
1697539,1430323,1661816
1697377,1430274,1662180
1697317,1430108,1663165
1697471,1429945,1662463
1697188,1430064,1662229
1697439,1429951,1662341
1697550,1429798,1663586
1697164,1429878,1663578
1697464,1429971,1662913
1697538,1429755,1663049
1697196,1429825,1663338
1697232,1430045,1663563
1697287,1430105,1663190
1697325,1430026,1663434
1697368,1430047,1663460
1697356,1429532,1663426
1697471,1429329,1663194
1697524,1429149,1664032
1697568,1429224,1663804
1697737,1429276,1663191
1697875,1429285,1662615
1698184,1429267,1662016
1698049,1429227,1662112
1698082,1428964,1662505
1698050,1429135,1663338
1697957,1429181,1662175
1697985,1429553,1661051
1697931,1429639,1661301
1697931,1429615,1660641
1697773,1429493,1661440
1697962,1429032,1661609
1697977,1429104,1661039
1697878,1428700,1660531
1698065,1427973,1660381
1697676,1427816,1660481
1697226,1427521,1660775
1697251,1427630,1660117
1697309,1427489,1660586
1697266,1427166,1660947
1697143,1426861,1660399
1696783,1426574,1660986
1696801,1426396,1662084
1696849,1426506,1662230
1697072,1426523,1661734
1697089,1426479,1661404
1697095,1426342,1661493
1696847,1426259,1661039
1696950,1426308,1661808
1696388,1426598,1661198
1696812,1426650,1661205
1696431,1426891,1661853
1696102,1426956,1663242
1696102,1426936,1661586
1696245,1426654,1661917
1696359,1426762,1660680
1696697,1426839,1661349
1696552,1426298,1661856
1696452,1426081,1662892
1696603,1426128,1662662
1696585,1426271,1661551
1696639,1426376,1661734
1696497,1426183,1661308
1696500,1426106,1661469
1696076,1425884,1660813
1696268,1425904,1661609
1695990,1425984,1661268
1696331,1426510,1662031
1696340,1426132,1661824
1696327,1426110,1661748
1696267,1425802,1661996
1696257,1426022,1662786
1696042,1426066,1662240
1696074,1426347,1662047
1695666,1426483,1662873
1695666,1426241,1662338
1695820,1426102,1661588
1696101,1426105,1662116
1696022,1426288,1662002
1696073,1426162,1661934
1696294,1426050,1662096
1696258,1426284,1662584
1695975,1426324,1662991
1696090,1426239,1662447
1695938,1426122,1664294
1695842,1426307,1662764
1695489,1426324,1662344
1695966,1426054,1661973
1695826,1425973,1661478
1696052,1426358,1660564
1696277,1426370,1661127
1696421,1426329,1659570
1696804,1426318,1660430
1696625,1426035,1660235
1696616,1425976,1659165
1696739,1425991,1658696
1696763,1425962,1659028
1696491,1426227,1658364
1696198,1426267,1659165
1696198,1426175,1658178
1696496,1426189,1658238
1696650,1426144,1657868
1696829,1426360,1658600
1696754,1425998,1657669
1696710,1425862,1657916
1696632,1425822,1658489
1696662,1425799,1657787
1696218,1425240,1659171
1696586,1425012,1658825
1696508,1424542,1658526
1696452,1424098,1659176
1696060,1423462,1659401
1696214,1423563,1659130
1696633,1423585,1658927
1696611,1423511,1659100
1696276,1423230,1659926
1695918,1422937,1659343
1695987,1422901,1659684
1696064,1422866,1658345
1696094,1422889,1659215
1695603,1423111,1659470
1695603,1422860,1659698
1695398,1422783,1658796
1695393,1422534,1659181
1695134,1422603,1658897
1695448,1422505,1659244
1695318,1422767,1658465
1695249,1422265,1658931
1695002,1422023,1659283
1695233,1422235,1659068
1695507,1422099,1659995
1695500,1422273,1659435
1695376,1421844,1660252
1695197,1421645,1659186
1695329,1421794,1660587
1695193,1421913,1659921
1695563,1421410,1660134
1695567,1421597,1661179
1695620,1421596,1661714
1695488,1421431,1661000
1695481,1421581,1660909
1695458,1421611,1660257
1695151,1421886,1661177
1695331,1422108,1661228
1695230,1421843,1660705
1695009,1422030,1661266
1695219,1422062,1661980
1695295,1422368,1662230
1694927,1422498,1661896
1694895,1422383,1662303
1694823,1422340,1661871
1694932,1422577,1661426
1695169,1422784,1661909
1694833,1422651,1661898
1694815,1422470,1660797
1694783,1422591,1661107
1694944,1422731,1660826
1694955,1422668,1660374
1695347,1422905,1659732
1695298,1423015,1660091
1695377,1422934,1660103
1695384,1422938,1660247
1695646,1422998,1658966
1695817,1423237,1658554
1695506,1423561,1659045
1695211,1423553,1659308
1695211,1423326,1659299
1695447,1423351,1658151
1695348,1423449,1658368
1695421,1423702,1658862
1695445,1423627,1659051
1695345,1423911,1658309
1695508,1424816,1658702
1695346,1425525,1658360
1695257,1425838,1658272
1695498,1426085,1658787
1695231,1426433,1658494
1695511,1426131,1659720
1695442,1425732,1658697
1695296,1425578,1658429
1694781,1425311,1658258
1694696,1424886,1659093
1694648,1425016,1657815
1694967,1424970,1659115
1694659,1425401,1658240
1694442,1425230,1658029
1694236,1425205,1657864
1694315,1425265,1658336
1694363,1425551,1657640
1694396,1425495,1657561
1694300,1425330,1658041
1694240,1425033,1658344
1694273,1425409,1658570
1694522,1425201,1658532
1694756,1425433,1657830
1694949,1425444,1657747
1694731,1425194,1657258
1694332,1425014,1658376
1694275,1425230,1658645
1694591,1425255,1658438
1694207,1425660,1659336
1694240,1425736,1659057
1694240,1425803,1658779
1694198,1425960,1660134
1694241,1426097,1660481
1694123,1426269,1660886
1694195,1426092,1660410
1694112,1425811,1660192
1694208,1425998,1660558
1694099,1426375,1660866
1694149,1426440,1661301
1694161,1426473,1660318
1694311,1426589,1660563
1694641,1427199,1659959
1694410,1427209,1661179
1694547,1427363,1660336
1694708,1427539,1659511
1694603,1427268,1658797
1694787,1427301,1658775
1694989,1427354,1658333
1694939,1427645,1657598
1694570,1427856,1657726
1694626,1427562,1656863
1694639,1427595,1656786
1694995,1427590,1655800
1694743,1427572,1655603
1694820,1427410,1655009
1694801,1427710,1656180
1695117,1428081,1655637
1694934,1427039,1655082
1694723,1426436,1655332
1694397,1426055,1655619
1694431,1426192,1655428
1694185,1426436,1655226
1693747,1426513,1654705
1693736,1426188,1655271
1694116,1426076,1654730
1694039,1426411,1654395
1694012,1426419,1653621
1693822,1426381,1653795
1693931,1426334,1653917
1694014,1426523,1652470
1693939,1426723,1651644
1694404,1426125,1651368
1694517,1426740,1651272
1694215,1426623,1649996
1694246,1426536,1649992
1694144,1426893,1649748
1694279,1426861,1650063
1694086,1427129,1650029
1693956,1427020,1649828
1693956,1426902,1649241
1693991,1427098,1649370
1694071,1426904,1648762
1694071,1426796,1649461
1694145,1426574,1648942
1693978,1426172,1648273
1694086,1426315,1648423
1693995,1426572,1649361
1693878,1426566,1649503
1693431,1426344,1649221
1693777,1426174,1649674
1694593,1426384,1648831
1694221,1425759,1649659
1694117,1425948,1650409
1694373,1426162,1650578
1694486,1426070,1650824
1694702,1426071,1652111
1694790,1426166,1651366
1694654,1426758,1651988
1694135,1426752,1651829
1694541,1427234,1652079
1694418,1426898,1653085
1694554,1426856,1652881
1694184,1427006,1652035
1694668,1426624,1652571
1694443,1426307,1652770
1694677,1426789,1652955
1694685,1426654,1651228
1694947,1426761,1652693
1695349,1426834,1652619
1695161,1426923,1653106
1695142,1426818,1653348
1695125,1426808,1651914
1695027,1426447,1651303
1694997,1426337,1650174
1694540,1426209,1649670
1694282,1425765,1650158
1694282,1425415,1649788
1694326,1425318,1648704
1694344,1424989,1649009
1693819,1424592,1648455
1694142,1424380,1648814
1693644,1424496,1648177
1693715,1424328,1648282
1693654,1424336,1647716
1693769,1424423,1648170
1693653,1424108,1647101
1693631,1424010,1648246
1693323,1424005,1648461
1693464,1424063,1647711
1693973,1424167,1647579
1693980,1424420,1647921
1693820,1424662,1647072
1693528,1424244,1648125
1693677,1424456,1647782
1693207,1424738,1647510
1693591,1424742,1648661
1693437,1425423,1648143
1693203,1425295,1648792
1693203,1425540,1648507
1693289,1425752,1648877
1692824,1425808,1648571
1693167,1426140,1648263
1693263,1426283,1647756
1693229,1425765,1648137
1693058,1425740,1649218
1693133,1425853,1648726
1693252,1425811,1648945
1693184,1425971,1648679
1693291,1425647,1649231
1693139,1425497,1649000
1693334,1425608,1648835
1693298,1425585,1648490
1693315,1425618,1648549
1693416,1425618,1649235
1693555,1425663,1648319
1693645,1425425,1648964
1693870,1425457,1649075
1693762,1425800,1649417
1693569,1425567,1649239
1693160,1425695,1648549
1693160,1425472,1649187
1693278,1425491,1649827
1693328,1425501,1649764
1693440,1425838,1648701
1693610,1425473,1649285
1693606,1425173,1649989
1693382,1425321,1650793
1693834,1425363,1649943
1693812,1425572,1650613
1693899,1425560,1650247
1693705,1425455,1650180
1693882,1425358,1650252
1693584,1425240,1651078
1693876,1425510,1650408
1694159,1425577,1650628
1694529,1425652,1650705
1694456,1425598,1650470
1694370,1425441,1650807
1694127,1425398,1649824
1694283,1425395,1650211
1694458,1425245,1649324
1694369,1425249,1649688
1693898,1424614,1648759
1693955,1424260,1649150
1693907,1423774,1648528
1693980,1423384,1647704
1693688,1423466,1648023
1693688,1423220,1647504
1693464,1423459,1647901
1693259,1423333,1648003
1692976,1423049,1647623
1693113,1422851,1647668
1693098,1422616,1646702
1693037,1422560,1647185
1692936,1422314,1646754
1692727,1422032,1647167
1692608,1422051,1646512
1692815,1421849,1646421
1692816,1422032,1646469
1693152,1422185,1646570
1692916,1422113,1647670
1693080,1421847,1647529
1692760,1421981,1648624
1692864,1421992,1648399
1692939,1422361,1647658
1692600,1422463,1648227
1692600,1422335,1647711
1692427,1422325,1648962
1692627,1422266,1648435
1692717,1422200,1647892
1692763,1422379,1647393
1692692,1422188,1647460
1692566,1422573,1648403
1692248,1422868,1648573
1692295,1422905,1648249
1692226,1422959,1648009
1692352,1423070,1648975
1692100,1423142,1648569
1691924,1423058,1648795
1692101,1423325,1648696
1692098,1423298,1649211
1692196,1423536,1649330
1692391,1423251,1649158
1692188,1423180,1649965
1692218,1423225,1650725
1692596,1423365,1650216
1692544,1423333,1651440
1692413,1423684,1651824
1692123,1423684,1651566
1692123,1423607,1651775
1692074,1423628,1652240
1692240,1423673,1652613
1692166,1423514,1652310
1692379,1423280,1652892
1692296,1423177,1652701
1692485,1423515,1652925
1692322,1423913,1653387
1692534,1423723,1653091
1692526,1423800,1653399
1692597,1423669,1653046
1692256,1423450,1653511
1692494,1423737,1653322
1692505,1423718,1653736
1693028,1423943,1653658
1692931,1423892,1654235
1692848,1423803,1653436
1692694,1423735,1653419
1693043,1423601,1653398
1692934,1423512,1652771
1692888,1423660,1653279
1692562,1423477,1653405
1692562,1422934,1653845
1692640,1422492,1653746
1692658,1422435,1653273
1692382,1422200,1651886
1692200,1421853,1652650
1692364,1421421,1651907
1691773,1421259,1653041
1691534,1421201,1651251
1691495,1421114,1650392
1691594,1421275,1650251
1691376,1420763,1651443
1691275,1420794,1651812
1691098,1420526,1650632
1691004,1420541,1649853
1691190,1420502,1650137
1691266,1420712,1649955
1691360,1420814,1650027
1691151,1420471,1649938
1691384,1420603,1649815
1691159,1420542,1649310
1691204,1420792,1649633
1690867,1420939,1649540
1690916,1420626,1650005
1690902,1420521,1649775
1690673,1420441,1649150
1690786,1419962,1648784
1690888,1420450,1649756
1690793,1420473,1650408
1690714,1420645,1649460
1690863,1420661,1649811
1690703,1420851,1648940
1691230,1421398,1650114
1690914,1421459,1649761
1690745,1421497,1652328
1691003,1421828,1650664
1691296,1421860,1649932
1690966,1421872,1649766
1691262,1422126,1650187
1691143,1422312,1649961
1690924,1422078,1650314
1690919,1422084,1650935
1691273,1422188,1650179
1691290,1422276,1650774
1691069,1422285,1650985
1690558,1422223,1651373
1691093,1422042,1650991
1691326,1422304,1651466
1691433,1422361,1651242
1691676,1422745,1651947
1691726,1422537,1650757
1692120,1422376,1650519
1691686,1423081,1650636
1691598,1422963,1650887
1691775,1423018,1651127
1691748,1422576,1651437
1691872,1422298,1651271
1691849,1421921,1652569
1691755,1421999,1651534
1691045,1421676,1651197
1690990,1421977,1651160
1690991,1421358,1651415
1690966,1420826,1651368
1690774,1420937,1651024
1690640,1420348,1651616
1690327,1420040,1650851
1690142,1420343,1651780
1690290,1420224,1650700
1690534,1420200,1651251
1690744,1420235,1651220
1690491,1420069,1651621
1690248,1420272,1650613
1690315,1420415,1651294
1690218,1420268,1650698
1690203,1420472,1650883
1689863,1420562,1650357
1689863,1420757,1650497
1689998,1420384,1649348
1690059,1420541,1649104
1690091,1420474,1648877
1689212,1420236,1648727
1690026,1420082,1647837
1690074,1420271,1647918
1690160,1420311,1647992
1690480,1420280,1647954
1690051,1420254,1647549
1689977,1420255,1647612
1689819,1419817,1647664
1689605,1420055,1647851
1689401,1419949,1648210
1689953,1420172,1647866
1690015,1419984,1647925
1689882,1419975,1647526
1690054,1419662,1648794
1689786,1419873,1648512
1690103,1419869,1649005
1690056,1420204,1648505
1689616,1420903,1648638
1689616,1420482,1649338
1689419,1420154,1648235
1689523,1420152,1648462
1689317,1420218,1648454
1689656,1420207,1648533
1689655,1420365,1648937
1689825,1420297,1647828
1690304,1420513,1647813
1689958,1420505,1648164
1690040,1420638,1647944
1689992,1420659,1648457
1690043,1420421,1647494
1689609,1420273,1647777
1689875,1420483,1647236
1690028,1420648,1647185
1690473,1420761,1647114
1690610,1420574,1648047
1690028,1420703,1648404
1690181,1420800,1648067
1690250,1421166,1647105
1690334,1421813,1647617
1690219,1421743,1647150
1690234,1421860,1648421
1690234,1421799,1648528
1690502,1421938,1649133
1690354,1421978,1649386
1690599,1422339,1649201
1690537,1421963,1649142
1690670,1421830,1648890
1690803,1421607,1648977
1690587,1421415,1649076
1690479,1421047,1648955
1690518,1420658,1648708
1690224,1420377,1649365
1690109,1419719,1649299
1689796,1419659,1650069
1689809,1419212,1649885
1689595,1419192,1649636
1689942,1419123,1649484
1689682,1418953,1649662
1689498,1418614,1649701
1689437,1418691,1650069
1689633,1418636,1649488
1689553,1418644,1648692
1689256,1418649,1648459
1688850,1418683,1648254
1688850,1418654,1647790
1688980,1418582,1646996
1688971,1418627,1646926
1689126,1418835,1646357
1688922,1418366,1646399
1689013,1418351,1645510
1688726,1418537,1645536
1688904,1418845,1645243
1688567,1418658,1644509
1688843,1418896,1644778
1688807,1418775,1643778
1688694,1418548,1644168
1688498,1418800,1644384
1688710,1418785,1643229
1688669,1418838,1643327
1689026,1419023,1644523
1688936,1418879,1644026
1688823,1418581,1644236
1688640,1418738,1643525
1688920,1418784,1643371
1688763,1419036,1643650
1688513,1419294,1644067
1688313,1418787,1644125
1688313,1419107,1644163
1688406,1419158,1643316
1688475,1419331,1643723
1688589,1419641,1643147
1688401,1419497,1644165
1688566,1419617,1644452
1688430,1420216,1643180
1688423,1420428,1642746
1688352,1420270,1642302
1688703,1420375,1643128
1688484,1420451,1642845
1688520,1420260,1642098
1688520,1420463,1642573
1688594,1420534,1643985
1688709,1420602,1643660
1688986,1420753,1642873
1688659,1420915,1642753
1688912,1420440,1642644
1688654,1421073,1643383
1689096,1421347,1644321
1689106,1421611,1643529
1688843,1421900,1644103
1688843,1421861,1643822
1688655,1422085,1643460
1688874,1421855,1643935
1689013,1422375,1643337
1689045,1422286,1643222
1688934,1422134,1643669
1688910,1422531,1642953
1689170,1422750,1643228
1689175,1422964,1643665
1689235,1423347,1644552
1689354,1423241,1644029
1689348,1422940,1644407
1689294,1422678,1644041
1689181,1422691,1643990
1689219,1422406,1643992
1689560,1422339,1644114
1689814,1421935,1644425
1689358,1421778,1644903
1689161,1421278,1645145
1689055,1421417,1644775
1689260,1421328,1645350
1688681,1421403,1645016
1688363,1421574,1644641
1688363,1421573,1644049
1688599,1421721,1645329
1688471,1421743,1643398
1688462,1421606,1643031
1688487,1421590,1642678
1688130,1421383,1641744
1688233,1421901,1640818
1688213,1422238,1641123
1688301,1422142,1640077
1688059,1422481,1640961
1687984,1422632,1640178
1687956,1422483,1639516
1688095,1422553,1638879
1688101,1422598,1638133
1688413,1422625,1640045
1688610,1422850,1639026
1688297,1422654,1639633
1688301,1422435,1639735
1688495,1422471,1639974
1688523,1422473,1639461
1688532,1422731,1639831
1688145,1422799,1639868
1687929,1422731,1640246
1687929,1422695,1640313
1687952,1422547,1640163
1688060,1422720,1639578
1687915,1422611,1640049
1688162,1422130,1639913
1687873,1421787,1641881
1688079,1421501,1640597
1688085,1421874,1640884
1688258,1421745,1640019
1688193,1421942,1641000
1688508,1421690,1640697
1688010,1421455,1639537
1688016,1421457,1640673
1688157,1421708,1639347
1688504,1421860,1640445
1688433,1421880,1640305
1688617,1422037,1640392
1688587,1421853,1641338
1688582,1422117,1641102
1688547,1422048,1640047
1688767,1422304,1641182
1688422,1422541,1640965
1688422,1422340,1641759
1688396,1422343,1641470
1688416,1422479,1641494
1688589,1422295,1641330
1688698,1422423,1641985
1688729,1421914,1642579
1688671,1422100,1642152
1689123,1422274,1641702
1689067,1422717,1642548
1689168,1422873,1642464
1689000,1423247,1643481
1689142,1422758,1643131
1688905,1422676,1642642
1689044,1422703,1643265
1689105,1422726,1643141
1689387,1422706,1644292
1689784,1422610,1644007
1689599,1422406,1644764
1689254,1421777,1644104
1689226,1421980,1644239
1689027,1421296,1644407
1688950,1421451,1644881
1688341,1420423,1644676
1688535,1420495,1645411
1688440,1420308,1645585
1688631,1420394,1645801
1688404,1420527,1644747
1688299,1421264,1644912
1687974,1420545,1644501
1688029,1420530,1643909
1687794,1420579,1643475
1688175,1420640,1643417
1687946,1420437,1642949
1688148,1420678,1643140
1688311,1420634,1643166
1688457,1420800,1642438
1688552,1420774,1641945
1687986,1420516,1641920
1688353,1420841,1642043
1688354,1420782,1641651
1688480,1420722,1641647
1688288,1420765,1641777
1688888,1420488,1640931
1688596,1420228,1641209
1688283,1420555,1641830
1688520,1420821,1641126
1688599,1420687,1642226
1688199,1420532,1641518
1688277,1420732,1641137
1688487,1420763,1641795
1688568,1420826,1641660
1689014,1420781,1641604
1689030,1421016,1641983
1689197,1420662,1642562
1688840,1420841,1642405
1688953,1421790,1641985
1688828,1421397,1642728
1688714,1421473,1642729
1688714,1421476,1642381
1687981,1421511,1642803
1688556,1421449,1642593
1688957,1421948,1642603
1688891,1421671,1642630
1688928,1421229,1642816
1688875,1421546,1643462
1689262,1421847,1643037
1689232,1421985,1643081
1689270,1422169,1643276
1689242,1422184,1643577
1689381,1422125,1643883
1689191,1422128,1643041
1689464,1422400,1643486
1689572,1422557,1643965
1689426,1422746,1643359
1690031,1422742,1643557
1689883,1422821,1643978
1689668,1423255,1644197
1689921,1422890,1644227
1690019,1422699,1644980
1689966,1422696,1644156
1689570,1422422,1644382
1689570,1421920,1644611
1689614,1421696,1644614
1689436,1421193,1645647
1689395,1421033,1645033
1689595,1420436,1645471
1689549,1419972,1646460
1689179,1419695,1645822
1688833,1419778,1644769
1688833,1419646,1646979
1688784,1419366,1646653
1688838,1419406,1646602
1688733,1419427,1647062
1688561,1418758,1646825
1688636,1418618,1646736
1688670,1418371,1647978
1688598,1418646,1647258
1689040,1418644,1647422
1688842,1419226,1647380
1688928,1418732,1648037
1688836,1418795,1648114
1688971,1418803,1647904
1688838,1419094,1648167
1688500,1419167,1647583
1688500,1419020,1647390
1688319,1419048,1647413
1688411,1418894,1647309
1688625,1419236,1647265
1688792,1419146,1646914
1688567,1418509,1646045
1688379,1418781,1646127
1688462,1418750,1645517
1688373,1419124,1645783
1688324,1419106,1645222
1688431,1419311,1645293
1688260,1419225,1644605
1688381,1418959,1644541
1687964,1419084,1644944
1688341,1419207,1644707
1688696,1419176,1645050
1688657,1419169,1644877
1688708,1419226,1644863
1688781,1418960,1644566
1688719,1419387,1645012
1688614,1419364,1645774
1688430,1419966,1645997
1688386,1420150,1645268
1688386,1420271,1645875
1688470,1420342,1645786
1688445,1420596,1646968
1688537,1420592,1647552
1688583,1420887,1647593
1688647,1420572,1648457
1688735,1420869,1648076
1688713,1421156,1648086
1688767,1421156,1647940
1688709,1421263,1648330
1688933,1421438,1648357
1688886,1421092,1648138
1688786,1421099,1648529
1688983,1421245,1648682
1689205,1421300,1648999
1689439,1421528,1649506
1689633,1421946,1649265
1689411,1421774,1648764
1689448,1421741,1650261
1689746,1421846,1649649
1689856,1421597,1649137
1689449,1421489,1650535
1689870,1421575,1649856
1689190,1421058,1652249
1689286,1420530,1651126
1689169,1420497,1651339
1688942,1420102,1651321
1688928,1420140,1651677
1688748,1419918,1650327
1688450,1419609,1650870
1688643,1419787,1651745
1688464,1419748,1652021
1688808,1419915,1651074
1688822,1420069,1652020
1688565,1419930,1652328
1688505,1419776,1653070
1688318,1419658,1652816
1688445,1419914,1652867
1688424,1420301,1652930
1688021,1420545,1653742
1688021,1420621,1653944
1687940,1420530,1654026
1687729,1420650,1654507
1688024,1420655,1654514
1688078,1420384,1654441
1688326,1420381,1653633
1688181,1420513,1655176
1688233,1420820,1654548
1688066,1420679,1656125
1688291,1420709,1655570
1688119,1420794,1656856
1688196,1420524,1654967
1687820,1420507,1655316
1687867,1420518,1654622
1688014,1420609,1654692
1688325,1420789,1653790
1688212,1420752,1653571
1688237,1420592,1653315
1688176,1420779,1654591
1688372,1420907,1654359
1688234,1421224,1653456
1688226,1421418,1653507
1687919,1421290,1653416
1687919,1421557,1653449
1688056,1421558,1653963
1688157,1421635,1653084
1688399,1421580,1653064
1688007,1421942,1653591
1688172,1421871,1653734
1688338,1422074,1654251
1688433,1422312,1654755
1688509,1422427,1654254
1688571,1422594,1654910
1688394,1422563,1655466
1688448,1422444,1654848
1688524,1422710,1655264
1688781,1422764,1654769
1689156,1422859,1655278
1689025,1422841,1654411
1689292,1422833,1655101
1689311,1422808,1655517
1689411,1423119,1656054
1689645,1423249,1655388
1689315,1423671,1655328
1689163,1423646,1654590
1689163,1423520,1655099
1689307,1423856,1654926
1689360,1423750,1655942
1689582,1423989,1655894
1689677,1423706,1656047
1689540,1423644,1655772
1689436,1424031,1655815
1689636,1424260,1656759
1689894,1424353,1656679
1689763,1424491,1656520
1689863,1424577,1656790
1690022,1424276,1656423
1689649,1423986,1655890
1689674,1423844,1656377
1689813,1423603,1656869
1689917,1423585,1656594
1689833,1423339,1656318
1689664,1422882,1657297
1689687,1422719,1657477
1689477,1422672,1657891
1689313,1422795,1657337
1688989,1423020,1657773
1688989,1423173,1658096
1688766,1422759,1657704
1688817,1422541,1657982
1688779,1423098,1657943
1688393,1422782,1658302
1688733,1422425,1658181
1688675,1422699,1657941
1688556,1422659,1658782
1689195,1422623,1658630
1689021,1422817,1658863
1688874,1423033,1659664
1688947,1422657,1658937
1688821,1422478,1658933
1688656,1422521,1658711
1688960,1422543,1658647
1689370,1422640,1658087
1689363,1422571,1657429
1689292,1422444,1657746
1688466,1422334,1656690
1689079,1422435,1656377
1689387,1422390,1656886
1689225,1423240,1655740
1688792,1423012,1656190
1688792,1422781,1656322
1688958,1422798,1656820
1689642,1422916,1656037
1689209,1423440,1655651
1689034,1423088,1655766
1689088,1422711,1655664
1689085,1423081,1655766
1689050,1423189,1656918
1688971,1423520,1656415
1689259,1423629,1656551
1689185,1423432,1656858
1689186,1423275,1656412
1689166,1423418,1657285
1689201,1424133,1657224
1689669,1423855,1657281
1689799,1423784,1656611
1689634,1423969,1657158
1689699,1423562,1657591
1689680,1423809,1658172
1689946,1423815,1658479
1689683,1424319,1658389
1689182,1424380,1658254
1689182,1424273,1657874
1689927,1424162,1657799
1689739,1424467,1658715
1689875,1424636,1657645
1689911,1424162,1656928
1689985,1423939,1657251
1690064,1423995,1657664
1690285,1424362,1657957
1690298,1424264,1657409
1689758,1424499,1657816
1690337,1424331,1658087
1690324,1424351,1658319
1690403,1424728,1659045
1690396,1424568,1658664
1690452,1424698,1658949
1691372,1424689,1659036
1691037,1424867,1658572
1690934,1424818,1659161
1690709,1424776,1659886
1690906,1424860,1659606
1690674,1424821,1658339
1690936,1424510,1659093
1690936,1424126,1659114
1690730,1423746,1659438
1690740,1423359,1660124
1690485,1423083,1659805
1690480,1422796,1660089
1690573,1422486,1660166
1690235,1422801,1660406
1689846,1422696,1660619
1689145,1422662,1661302
1689643,1422727,1661281
1689924,1422556,1660922
1689604,1422642,1662036
1689518,1422116,1661068
1689603,1422439,1661430
1690149,1422129,1661768
1690160,1422149,1661859
1690035,1421854,1660917
1689893,1421863,1661989
1690053,1421693,1660323
1690119,1421811,1660723
1690262,1421604,1660033
1689871,1422039,1659305
1689625,1421864,1658889
1689625,1421752,1659675
1689677,1421512,1659018
1690199,1421736,1658638
1690050,1421966,1657735
1690006,1421523,1658054
1689858,1421160,1657850
1690066,1421231,1657753
1690028,1421422,1657481
1689832,1421366,1657798
1689851,1421675,1658296
1689852,1421425,1657846
1689695,1421251,1658331
1689635,1421317,1658321
1689723,1421452,1657767
1689864,1421396,1658441
1690026,1421304,1658332
1690022,1421378,1657752
1690128,1421017,1659004
1690022,1421155,1659042
1690138,1421075,1659639
1690377,1421138,1658861
1689990,1421419,1659946
1689954,1421502,1658271
1689954,1421372,1658670
1689928,1421515,1658553
1690220,1421606,1658674
1690074,1421372,1658817
1689979,1421391,1658014
1690086,1421344,1658078
1690105,1421569,1657848
1690217,1421997,1658220
1690479,1421819,1658315
1690453,1421864,1657938
1690526,1421788,1657708
1690356,1421772,1658241
1690552,1421959,1657018
1690606,1422121,1658558
1691097,1422265,1657845
1690967,1422392,1658673
1691163,1422400,1658823
1691040,1422351,1658923
1691156,1422575,1658144
1691228,1422627,1658687
1691052,1422906,1658023
1690848,1423138,1659584
1690622,1422968,1658558
1690622,1422783,1659478
1690876,1422439,1660770
1690986,1422569,1659442
1690801,1422020,1660294
1691052,1421528,1659332
1690365,1421274,1661261
1690553,1420726,1659556
1690373,1420794,1659891
1690396,1421190,1659379
1690286,1420967,1659854
1690076,1420540,1659499
1689793,1420550,1660571
1690024,1420574,1660615
1690008,1420344,1661128
1690534,1420471,1660314
1690110,1420529,1661298
1690195,1420250,1660918
1689974,1420479,1661253
1690189,1420593,1659788
1690254,1420579,1660182
1690029,1420992,1659403
1690029,1420974,1659903
1689765,1421137,1658653
1689895,1421105,1658814
1689911,1421324,1658449
1689974,1421411,1658335
1689942,1421102,1658591
1689955,1421139,1658222
1690133,1421223,1657234
1690152,1421227,1657310
1690082,1421517,1657171
1690214,1421613,1657198
1689764,1421412,1656469
1689865,1421186,1656867
1689735,1421411,1657344
1690143,1421298,1657517
1689891,1421399,1657410
1690271,1421371,1657069
1689962,1421440,1656968
1690287,1421338,1656523
1689961,1421565,1658257
1690401,1421715,1656949
1689904,1422043,1656931
1689687,1422409,1657061
1689687,1422089,1657860
1689787,1422120,1658329
1689934,1422291,1657540
1690006,1422333,1658213
1690073,1422010,1657509
1689955,1421949,1658384
1690092,1422049,1658477
1690208,1422383,1658263
1690503,1422282,1657761
1690434,1422299,1657741
1690458,1422284,1656781
1690288,1421880,1658567
1690211,1422034,1657899
1690319,1422081,1658019
1690554,1422013,1658753
1691013,1422162,1658099
1690939,1422220,1657713
1690749,1422080,1657813
1690673,1422113,1658912
1690945,1422263,1657834
1691149,1422306,1657338
1690763,1422575,1657366
1690763,1422685,1659061
1690841,1422526,1659070
1690708,1422466,1658283
1690962,1422883,1658052
1691055,1422461,1657818
1690917,1421974,1658399
1690666,1421780,1658653
1690842,1421226,1658004
1690531,1421182,1658903
1690572,1421169,1658620
1690346,1421026,1659221
1690332,1420803,1658855
1690075,1420574,1659464
1690160,1420789,1660004
1689880,1420804,1659059
1690357,1420812,1658899
1690177,1420874,1658640
1689993,1420809,1658983
1689787,1420681,1660001
1689787,1421127,1660115
1690371,1421063,1658970
1690176,1421505,1659938
1689599,1421594,1660062
1689599,1421906,1659870
1689697,1422019,1659527
1689651,1422128,1660465
1689395,1422592,1659542
1689628,1422265,1658527
1689614,1422188,1658563
1689562,1422406,1658630
1689756,1422562,1657527
1689487,1422532,1657595
1689611,1423226,1656854
1689260,1422798,1657081
1689322,1422237,1657008
1688310,1422531,1656387
1689098,1422462,1656912
1689272,1422504,1656452
1689545,1422694,1656474
1689443,1422517,1656133
1689302,1422351,1657017
1689782,1422444,1657401
1689633,1422547,1657358
1689496,1423016,1656796
1689245,1423236,1657161
1689245,1423003,1656766
1689020,1422678,1657083
1689116,1422453,1657418
1689068,1422453,1657191
1689423,1422361,1657216
1689527,1422218,1657427
1689239,1422549,1657750
Device connected: 68:37:22:d2:22:6d,,1657170
1689056,1422587,1657513
1689581,1422658,1657712
1689320,1422741,1658089
1689687,1422648,1658311
1689369,1422501,1658919
1689380,1422848,1658492
1689436,1422913,1658185
1689867,1422962,1657967
1689646,1422766,1658572
1690074,1422608,1658419
1690216,1422534,1658692
1690057,1422872,1658229
1690087,1422713,1658516
1690005,1422992,1658297
1689846,1422893,1658329
1689846,1422517,1658590
1689666,1422863,1657398
1689609,1422268,1659953
1689511,1421747,1658562
1689493,1420995,1658637
1688568,1420478,1659095
1689066,1420361,1658977
1688813,1419981,1658520
1688886,1419392,1659842
1688658,1419287,1659388
1688705,1419302,1659607
1688332,1419331,1659506
1688797,1419993,1659550
1688277,1419458,1659814
1688668,1419670,1659896
1688654,1419677,1660768
1688570,1419876,1660841
1688735,1419339,1660877
1688870,1419199,1660612
1688651,1419663,1660505
1688363,1419527,1660797
1688317,1419258,1660822
1688166,1418981,1660917
1688132,1419246,1661319
1688295,1419253,1661309
1688363,1419714,1661731
1688345,1419518,1660398
1688313,1419607,1660791
1688519,1419850,1660186
1688320,1419545,1662269
1688351,1419703,1659437
1688388,1419536,1659468
1688649,1419824,1659145
1688443,1419870,1658878
1688676,1419791,1658987
1688464,1419955,1659866
1688481,1419739,1658931
1688377,1419758,1659398
1688745,1419296,1659170
1688295,1418305,1659061
MTU changed to 255 for device 68:37:22:d2:22:6d,,1659240
1687969,1417662,1660210
1687511,1417478,1659123
1687384,1417384,1659060
1687324,1416990,1658909
1687094,1416678,1658927
1686870,1416719,1659934
1686572,1416709,1659074
1686718,1416769,1659287
1686657,1416738,1659605
1686813,1416702,1659889
1686640,1416958,1659889
1687056,1417447,1660285
1686438,1416941,1660587
1686337,1416676,1660914
1686423,1416866,1659675
1686425,1416503,1661258
1686251,1416791,1660107
1686126,1416959,1660797
1685851,1416911,1660400
1685852,1416924,1659851
1685994,1417009,1660096
1685770,1417109,1662064
1686039,1417220,1660950
1685862,1416950,1660691
1685709,1416838,1660159
1685719,1417070,1661201
1685869,1417081,1661202
1686209,1417203,1662826
1686334,1417245,1662269
1686192,1417135,1661778
1686623,1417248,1662468
1686605,1417510,1661969
1686622,1417440,1662474
1686045,1417718,1661816
1685794,1417768,1662665
1685794,1417885,1661868
1686052,1417876,1662678
1686012,1417951,1661923
1686207,1417931,1662435
1686207,1417834,1662880
1686410,1417779,1663418
1686125,1418226,1662661
1686104,1418065,1663768
1686449,1417623,1663560
1686287,1417359,1664549
1686015,1416176,1663880
1685348,1415227,1663309
1685238,1414877,1663756
1684617,1414547,1664653
1684039,1414214,1664478
1684377,1414391,1664086
1684487,1414458,1664891
1684002,1414464,1664653
1683971,1414913,1664935
1683600,1414774,1665375
1683706,1415023,1664954
1683654,1414682,1664587
1683960,1415011,1664378
1683757,1415208,1664024
1683875,1414829,1662601
1683587,1414475,1662328
1683857,1414543,1662775
1683772,1414433,1663185
1684029,1414632,1662655
1683739,1414491,1661212
1683903,1414457,1661711
1683885,1414608,1660958
1683731,1414767,1661893
1683763,1414597,1660992
1683365,1415015,1661472
1682958,1414810,1661377
1682958,1414794,1662100
1683067,1414611,1661257
1683121,1414674,1662577
1683019,1414728,1662703
1683017,1414451,1661449
1683209,1414456,1662429
1683058,1414836,1662362
1682942,1415085,1662782
1682827,1415016,1662458
1683240,1414899,1662392
1683140,1415023,1662514
1683251,1415532,1662218
1683168,1415675,1662177
1683107,1415738,1663131
1683777,1415717,1663492
1683865,1415852,1663189
1683728,1416218,1662882
1683379,1416229,1663494
1682815,1416213,1663085
1683393,1416289,1664460
1683521,1416478,1662926
1683660,1416515,1662529
1683380,1415832,1662325
1682811,1414624,1663254
1682572,1414263,1663383
1682004,1413477,1662409
1682220,1414339,1662731
1681728,1413803,1662529
1681548,1414067,1662987
1681736,1413962,1662139
1681133,1413591,1662644
1680965,1413979,1662834
1680971,1413847,1663270
1680863,1413694,1663064
1680702,1413776,1663225
1680810,1413843,1663005
1680701,1413888,1663622
1680139,1414152,1663374
1680227,1413923,1663561
1680003,1414098,1663273
1680061,1414150,1664000
1680390,1414866,1664331
1680232,1414677,1664455
1679417,1414501,1664217
1679747,1414383,1664213
1679697,1414297,1664100
1679601,1414850,1663858
1679691,1414759,1663876
1679588,1414408,1663610
1679534,1414549,1662852
1679450,1414405,1663141
1678911,1414763,1662866
1679472,1415123,1662213
1679817,1415727,1662124
1680197,1415267,1661656
1679439,1415405,1661573
1679640,1415817,1661310
1680190,1415718,1661669
1680095,1415863,1661945
1679929,1416366,1661974
1679653,1416352,1661591
1679337,1416343,1661377
1680010,1416240,1661394
1680236,1416858,1661439
1680010,1416700,1662956
1679951,1416466,1660883
1678662,1416454,1660944
1679942,1417132,1661359
1681414,1416843,1660929
1680406,1416848,1662584
1680363,1416422,1661814
1680349,1416808,1662817
1680617,1416375,1662351
1680849,1416335,1661992
1680232,1416196,1661658
1679936,1415703,1661654
1679852,1415305,1662116
1679788,1414916,1663227
1679556,1414984,1661962
1679180,1414544,1662438
1679069,1414318,1663131
1678680,1414237,1662829
1678665,1414208,1662509
1678305,1414009,1661666
1678268,1414405,1661696
1678031,1414366,1662676
1677913,1414683,1663079
1677873,1414823,1662787
1677540,1414751,1661929
1677538,1414950,1662495
1677605,1415106,1662679
1677605,1414830,1662175
1677379,1414982,1662950
1677482,1415003,1662516
1677275,1415439,1662223
1677336,1415356,1662356
1677390,1415567,1663594
1677416,1415822,1663090
1677595,1415501,1664185
1677660,1415618,1663617
1677421,1415643,1663382
1677098,1415869,1663462
1677424,1415914,1663330
1677292,1416100,1663857
1677692,1415959,1664136
1677559,1416138,1664341
1678171,1416457,1664001
1677962,1416412,1664438
1678150,1416724,1665252
1678147,1416762,1664391
1678379,1416496,1663342
1678117,1416658,1662850
1678300,1416828,1664165
1678149,1416790,1662353
1678187,1416789,1661446
1678316,1416907,1660323
1678141,1416949,1661034
1678510,1416765,1662110
1678724,1417024,1660945
1678584,1416728,1660476
1678416,1416662,1659823
1678581,1416692,1660517
1678335,1416654,1660674
1678527,1415993,1659925
1677781,1415181,1659271
1677312,1414887,1659458
1677273,1415036,1659385
1677420,1414945,1659848
1677474,1415055,1659991
1677442,1414930,1659624
1676994,1415045,1659146
1676966,1415012,1659191
1676789,1414956,1658732
1677185,1414777,1658237
1676960,1414788,1657920
1677019,1414881,1657824
1676835,1415010,1657278
1676831,1414918,1656200
1677245,1415056,1655464
1677362,1415131,1655489
1677399,1415051,1655291
1677330,1414922,1655211
1677190,1414967,1654792
1677265,1414956,1655120
1677416,1415139,1656466
1676908,1415267,1655525
1677006,1415273,1655315
1677006,1415171,1654846
1677051,1415297,1655502
1677129,1415383,1655677
1677254,1415470,1657804
1677190,1415227,1656435
1677117,1415487,1656859
1676797,1415495,1657229
1676677,1415717,1657964
1676875,1415989,1658769
1676857,1416103,1658535
1676979,1416156,1658766
1676827,1416352,1659161
1676888,1416761,1658804
1676993,1416921,1658510
1677566,1417251,1659210
1677345,1417257,1659562
1677653,1417297,1659952
1677237,1417209,1659391
1677338,1417575,1660298
1677563,1417846,1660486
1677451,1418037,1661089
1677948,1418511,1659795
1678078,1418356,1660243
1677786,1418757,1659485
1677824,1418887,1659764
1677601,1418807,1660097
1677577,1418861,1660002
1677931,1418747,1659847
1678110,1418806,1658840
1678154,1418769,1658478
1678109,1418670,1659347
1678083,1418942,1657848
1678182,1419049,1656616
1678373,1419255,1655958
1678546,1420124,1655529
1678503,1419570,1655055
1678928,1419261,1653549
1678569,1419918,1653616
1678774,1420031,1653538
1679604,1420103,1652654
1678770,1419408,1651774
1678488,1419071,1652650
1678004,1419062,1651908
1678445,1418730,1651675
1677920,1418668,1650808
1677826,1418398,1650679
1677766,1418691,1650238
1676965,1418215,1651380
1677477,1418138,1650939
1677656,1418305,1651211
1677469,1419164,1650566
1677854,1418947,1650666
1678043,1418317,1650651
1677971,1418134,1651803
1677588,1418552,1651291
1678334,1418342,1651550
1678069,1418618,1651261
1678382,1418542,1650816
1677969,1418224,1649912
1677761,1418109,1651914
1677854,1418115,1651625
1678477,1418041,1650975
1677976,1417763,1651459
1678049,1418037,1650882
1677922,1417877,1651339
1678179,1418201,1651535
1678265,1418126,1651330
1678377,1418229,1650679
1678543,1418453,1651338
1678676,1418332,1650940
1678618,1418491,1651163
1678752,1418730,1651360
1678712,1419436,1651172
1678514,1418892,1650719
1679046,1418657,1650845
1678587,1418676,1651079
1678682,1418785,1651605
1678906,1418391,1651274
1678902,1417981,1651225
1679126,1418028,1651730
1680108,1417606,1651803
1679964,1417333,1651438
1680106,1416801,1651577
1680031,1416471,1650723
1680113,1416362,1650961
1679826,1416679,1652342
1680558,1416770,1653094
1680707,1417361,1651827
1680234,1417215,1652017
1680300,1418098,1652354
1680525,1417347,1651871
1680479,1417548,1652451
1680595,1417485,1652684
1680577,1417154,1652678
1680651,1417131,1651891
1680732,1416815,1651539
1680256,1416110,1650823
1680276,1416075,1651813
1680131,1415699,1650805
1680315,1415737,1650171
1679991,1415569,1649710
1680078,1415116,1648852
1680061,1415509,1648974
1680126,1415525,1648771
1680250,1415608,1647749
1680230,1415715,1646959
1679935,1416012,1645604
1680617,1415940,1646327
1680504,1415936,1646340
1680484,1416160,1646591
1680637,1415915,1645747
1680599,1415953,1645926
1680980,1415514,1646039
1680656,1415599,1646597
1680663,1415461,1645738
1680807,1415701,1646951
1681027,1415348,1646998
1681184,1415709,1646482
1681317,1415592,1646375
1681162,1415579,1646934
1681288,1415712,1646554
1681277,1415982,1646290
1681481,1415921,1645980
1681428,1416085,1646473
1681404,1415822,1647033
1681313,1415956,1647053
1681569,1415865,1646677
1682058,1416297,1646906
1682149,1416104,1647344
1682123,1416161,1646353
1682175,1416575,1646585
1682610,1416947,1647092
1682825,1416889,1646484
1682542,1417011,1646224
1682677,1416850,1645856
1682573,1416773,1645920
1682980,1416563,1645803
1683116,1416888,1645253
1682936,1416896,1646651
1683088,1416759,1645543
1683010,1416654,1645000
1683115,1416978,1644891
1683459,1416957,1645941
1683865,1416984,1646523
1683695,1416957,1646923
1683522,1416605,1646884
1683468,1416631,1647529
1683594,1416555,1647813
1683566,1416671,1648260
1683072,1416695,1648896
1683072,1416406,1648289
1682795,1416319,1648609
1683053,1416106,1648596
1683082,1416151,1648812
1683003,1415784,1648778
1682636,1415637,1648403
1682700,1415614,1646998
1682771,1415468,1647481
1682712,1415531,1647360
1682864,1415705,1647840
1683067,1415660,1648565
1682916,1415399,1649290
1682760,1415286,1649331
1683240,1415527,1649354
1683130,1415690,1649312
1683702,1416048,1650184
1683766,1416112,1650365
1683748,1416198,1650573
1683608,1416361,1650417
1683748,1416564,1649837
1684005,1416659,1648700
1683963,1416705,1648562
1683608,1417057,1646856
1683608,1416872,1646216
1683726,1416849,1645286
1683835,1417156,1644258
1683848,1417314,1644916
1683782,1417197,1643847
1684012,1417135,1643332
1683873,1417362,1643176
1683907,1417697,1643216
1683840,1417934,1643353
1684020,1418168,1643264
1684066,1418191,1644254
1683868,1418053,1643607
1683966,1418183,1644114
1684183,1418442,1643986
1684331,1418490,1644143
1684879,1418593,1645035
1684465,1418557,1644728
1684634,1418698,1644332
1684411,1418727,1644388
1684571,1419217,1644303
1684548,1419531,1644589
1684871,1419958,1644018
1685086,1420169,1643876
1685001,1420559,1643722
1684972,1420807,1643840
1684881,1420730,1644240
1685386,1420444,1644123
1685461,1420600,1643538
1685686,1420739,1644224
1685341,1420577,1644162
1685402,1421033,1645774
1685443,1421292,1645316
1685895,1421413,1645203
1685985,1421848,1644179
1686093,1422566,1644713
1685733,1423007,1644742
1685503,1422427,1645770
1686696,1422446,1645447
1686668,1422212,1646044
1686050,1422228,1644605
1685920,1421832,1645636
1685314,1422144,1645006
1685507,1421860,1645544
1685339,1421942,1645720
1685119,1422383,1644690
1685344,1422507,1646626
1685776,1422868,1645822
1685405,1422798,1646082
1685582,1423507,1645889
1685817,1423372,1646591
1685513,1423699,1646075
1685738,1423413,1646400
1685627,1423413,1646333
1685609,1423964,1647208
1685853,1423937,1646705
1684776,1423667,1647636
1685559,1423798,1647397
1686525,1423938,1647658
1685845,1424372,1647587
1686081,1424779,1648370
1685450,1424448,1647441
1686043,1424297,1648154
1686188,1424883,1646521
1685928,1425148,1646501
1686252,1425105,1646172
1685934,1424597,1645836
1686017,1424921,1645343
1686298,1424765,1643986
1686420,1425458,1645026
1686601,1425261,1643522
1686847,1424860,1643078
1686864,1425317,1642471
1686547,1424952,1643295
1686579,1424929,1641689
1686807,1425241,1642060
1686753,1424447,1641400
1686828,1423194,1641744
1686462,1423204,1641897
1686549,1422814,1642578
1686141,1422604,1642010
1686285,1422697,1642061
1686368,1423090,1642350
1686401,1422866,1643548
1686399,1423519,1642678
1686844,1423344,1642371
1686420,1423389,1642646
1686223,1423731,1642773
1686178,1423727,1642081
1686651,1423639,1642296
1686579,1423437,1643063
1686404,1423372,1644109
1686541,1423315,1642450
1686729,1423738,1642596
1686967,1422854,1642905
1686658,1423041,1642474
1686755,1423317,1642434
1686495,1423305,1642910
1686812,1423331,1643323
1686931,1423558,1642630
1686784,1423497,1643327
1686585,1423287,1643780
1686661,1422990,1643833
1686805,1422982,1644146
1687069,1422944,1644153
1686943,1422518,1643594
1686815,1422696,1644063
1687111,1422407,1643983
1687106,1422590,1643846
1687495,1422470,1643811
1687527,1422527,1643847
1687617,1422727,1643837
1687599,1422548,1645053
1687466,1421934,1645724
1687746,1422161,1645389
1687776,1421959,1644347
1687820,1421227,1644302
1687217,1420874,1644681
1687576,1419965,1645049
1687466,1419936,1645698
1687233,1419518,1646245
1687099,1419309,1645768
1686817,1419373,1645498
1686882,1419037,1646318
1686998,1418802,1646726
1686985,1418601,1646696
1687030,1418430,1646538
1686865,1418612,1646982
1686906,1418585,1647220
1687101,1418836,1646258
1686947,1418917,1645673
1686946,1418601,1645331
1687027,1418699,1645031
1687251,1418742,1644659
1687282,1418676,1644206
1687466,1418642,1642837
1687272,1418312,1642305
1687143,1418094,1641618
1687173,1418219,1641112
1687641,1418284,1640741
1687585,1418158,1640668
1687567,1418231,1640559
1687696,1417889,1640614
1687686,1417997,1640378
1687585,1418003,1640299
1687641,1418129,1640430
1687277,1418067,1640340
1687277,1417938,1640567
1687197,1417648,1639754
1687265,1417703,1640476
1687323,1417695,1641065
1687163,1417435,1641977
1687577,1417340,1640581
1687543,1417299,1640539
1687592,1417417,1640116
1687327,1417148,1640065
1687576,1417092,1640177
1687684,1416855,1641268
1687784,1416554,1641405
1687349,1416363,1641044
1687641,1416503,1640929
1687648,1416356,1641499
1688157,1416430,1641199
1688215,1416176,1641332
1688363,1416061,1641332
1688303,1416268,1641281
1688463,1415915,1642057
1688133,1415739,1641161
1688474,1415539,1640878
1688473,1415626,1642197
1688418,1415399,1641831
1688256,1414903,1641260
1688396,1414384,1642763
1688148,1414055,1642705
1688162,1414018,1642200
1688132,1413607,1641589
1687668,1413090,1641429
1687672,1412707,1642398
1687651,1412593,1642613
1687527,1412532,1642631
1687592,1412152,1641899
1687581,1411980,1642863
1687276,1411990,1642907
1687234,1411689,1642869
1687353,1411402,1642483
1686761,1411497,1643456
1686860,1411518,1643503
1686860,1411432,1644798
1686815,1411039,1644080
1686511,1410891,1644616
1686763,1410992,1644314
1686837,1410951,1643768
1687661,1410569,1644476
1687230,1410416,1644232
1687102,1410479,1644390
1687125,1410454,1644804
1687145,1410809,1644911
1687204,1410655,1646039
1687052,1410327,1645420
1686831,1410227,1646143
1686411,1410345,1644631
1686874,1410247,1644836
1687392,1410138,1643548
1687278,1410363,1642484
1687266,1409911,1642514
1686847,1409926,1640773
1687505,1409949,1641161
1687125,1409995,1640174
1686792,1410101,1639939
1686792,1409401,1639103
1686714,1409859,1638864
1686645,1409776,1638221
1686745,1410106,1638611
1686857,1409962,1638848
1686961,1409491,1638999
1686542,1409240,1638381
1686975,1409674,1638611
1686743,1410105,1637925
1686752,1410569,1638499
1686880,1410338,1638712
1687048,1409936,1638927
1686088,1409590,1637715
1686621,1409691,1637765
1686905,1409556,1636381
1687262,1409662,1637049
1687262,1409484,1638853
1687642,1409564,1638127
1687776,1409404,1638834
1687287,1409262,1637460
1687481,1409292,1637814
1687794,1409047,1638234
1687815,1409024,1640197
1687786,1408554,1638174
1687363,1408536,1638083
1687279,1408079,1637159
1687160,1407972,1637720
1686630,1407423,1638092
1686702,1407099,1638610
1686725,1406923,1638362
1686750,1406884,1638623
1686902,1406163,1638356
1686448,1406065,1638997
1686514,1405816,1638792
1686248,1405905,1638917
1685951,1406021,1638667
1686277,1406020,1638704
1686182,1406175,1639367
1686490,1405785,1640555
1686149,1405845,1640462
1686100,1405810,1639983
1685840,1405953,1639771
1685984,1406281,1639793
1685643,1405756,1639438
1685866,1405729,1639673
1685976,1406254,1640121
1686034,1405917,1640373
1685630,1406091,1640207
1685726,1406294,1640214
1685575,1406715,1640735
1685838,1406838,1639998
1685855,1406960,1641464
1685816,1406986,1641403
1686391,1408015,1641930
1686260,1408069,1642224
1686503,1408674,1643376
1686618,1408802,1642654
1686677,1408543,1643169
1686612,1408454,1642472
1686251,1408347,1643132
1685946,1408221,1643061
1685835,1407895,1643053
1685957,1407965,1643090
1686011,1407437,1642561
1685528,1406893,1642737
1685347,1405853,1643261
1685513,1405738,1642826
1684964,1405248,1642331
1684920,1405109,1642023
1685286,1405532,1640269
1685393,1405472,1640792
1685131,1405729,1639896
1685177,1405766,1639601
1685321,1405979,1639867
1684603,1406457,1638768
1685320,1406202,1637547
1684963,1406081,1637573
1684662,1406287,1638531
1684367,1406280,1638364
1684738,1406451,1637815
1684255,1406570,1637080
1684283,1406674,1637429
1684462,1407117,1636792
1684183,1407012,1637167
1684326,1406882,1636908
1684260,1406739,1637152
1684443,1406717,1636660
1683789,1406641,1636067
1684145,1406402,1637278
1684402,1405680,1637809
1684344,1405572,1637495
1684429,1405244,1637699
1684334,1405000,1637305
1684445,1405040,1637437
1684457,1405159,1637268
1684774,1405186,1638140
1684881,1404860,1638592
1684818,1404869,1638486
1684562,1404748,1638723
1684937,1404808,1639488
1684980,1405032,1639850
1684656,1405486,1639843
1684313,1405481,1638639
1684313,1405541,1638999
1684570,1405548,1638771
1684448,1405509,1638981
1684582,1405305,1639646
1684301,1404487,1638663
1684415,1403938,1639240
1683816,1403518,1639990
1683780,1403357,1639692
1683789,1403345,1639580
1683425,1403363,1640381
1683371,1403102,1640669
1683374,1402812,1640810
1682907,1402505,1640922
1683076,1402289,1640788
1683097,1402157,1641319
1683353,1402159,1642055
1683188,1402002,1642898
1683226,1401731,1641952
1683034,1401759,1642190
1683069,1401695,1643584
1682997,1401675,1643634
1682952,1402141,1643218
1682492,1401993,1643028
1682492,1402232,1643457
1682783,1402086,1643812
1682706,1402304,1643761
1683009,1402475,1644924
1682725,1401791,1645054
1682678,1401589,1644781
1682544,1401388,1645185
1682718,1401299,1645212
1682587,1401097,1646755
1682463,1401180,1646729
1682478,1400620,1646352
1682423,1400270,1646130
1682158,1400235,1646278
1682422,1400053,1646518
1682580,1400208,1645704
1682803,1400340,1646117
1682519,1400152,1644819
1682398,1400241,1644700
1682111,1400239,1644123
1682440,1400264,1644311
1681835,1400492,1643836
1682041,1400515,1644416
1681916,1399946,1642886
1682538,1399565,1642593
1682865,1399864,1642721
1682760,1399864,1642271
1682462,1399882,1642671
1682698,1399804,1642671
1682646,1399444,1642200
1682846,1399442,1642475
1682732,1399638,1642681
1682276,1399283,1643329
1682598,1398387,1643631
1682649,1396637,1644206
1682421,1396536,1643791
1682148,1396473,1644834
1681973,1396437,1644805
1681788,1395936,1645726
1681309,1395439,1645272
1681605,1394472,1644742
1681383,1394950,1644861
1681528,1394650,1645592
1681404,1394606,1645807
1681525,1394644,1646047
1681215,1394649,1645341
1681680,1395132,1645171
1681539,1395356,1645964
1681745,1395453,1645828
1681681,1395009,1646285
1681643,1395125,1645912
1681662,1394911,1646067
1681669,1395214,1646116
1681766,1395111,1646355
1681027,1394837,1647122
1681172,1394654,1647687
1681208,1394383,1647659
1681506,1394597,1647704
1681541,1394523,1647686
1681805,1394463,1648722
1681831,1394574,1648677
1682117,1394413,1649015
1682284,1394321,1648979
1682272,1394285,1649352
1682446,1395116,1649093
1682567,1395639,1650057
1681764,1395800,1650690
1682347,1396813,1650053
1683091,1396343,1650146
1682470,1396219,1650065
1682242,1394937,1650021
1681535,1393983,1651284
1681703,1393958,1651676
1681407,1393558,1652026
1681359,1393185,1651238
1681106,1392637,1651482
1680914,1392372,1653592
1681372,1391950,1652601
1681187,1391911,1652811
1681439,1392319,1653076
1681333,1392605,1653465
1681501,1392760,1653378
1681616,1392049,1654221
1681212,1392405,1654318
1681696,1392732,1655182
1681421,1392601,1654202
1681282,1392583,1654240
1680989,1392379,1653405
1681016,1392529,1654493
1681134,1392577,1654274
1681097,1392767,1653352
1681302,1392425,1652867
1681422,1392661,1652951
1681518,1393085,1652069
1681701,1393596,1652892
1681932,1393694,1652556
1681684,1393843,1651716
1682084,1394015,1652323
1682090,1394086,1650543
1682379,1394262,1651858
1682337,1394643,1651287
1682195,1394601,1651330
1682299,1394817,1651012
1682418,1394796,1651123
1682370,1395349,1650907
1682514,1395109,1651289
1682696,1395030,1651249
1682997,1394117,1651834
1682892,1393175,1650729
1682340,1392488,1651560
1681545,1391989,1650711
1681921,1392178,1651617
1681629,1392142,1651738
1681780,1392456,1650913
1681550,1392647,1650885
1681315,1392508,1651627
1681341,1392465,1650880
1681828,1391870,1650516
1681534,1391874,1650092
1681446,1391852,1649606
1681571,1391818,1650211
1681583,1391913,1649359
1682057,1392107,1649906
1682043,1392415,1649469
1682164,1392494,1650184
1681946,1393081,1649730
1682075,1392875,1650354
1681602,1392911,1650461
1681774,1393536,1651124
1681909,1393628,1651246
1681901,1393843,1651199
1681435,1394027,1650783
1681561,1394398,1650961
1681528,1394353,1650334
1681927,1394307,1651527
1681733,1394369,1650811
1681972,1393994,1650190
1681845,1394041,1649466
1681929,1394413,1650418
1682029,1394507,1649968
1682519,1394825,1650643
1682366,1394976,1650588
1682498,1395083,1650978
1682527,1395248,1650794
1682526,1395482,1651523
1682483,1395406,1651805
1682578,1395761,1651560
1682302,1395744,1651952
1682302,1395657,1651912
1682532,1395744,1651723
1682730,1395794,1651900
1682831,1396074,1652064
1682864,1396261,1652584
1683142,1396313,1652010
1683234,1396832,1651533
1683269,1397147,1650597
1683304,1396953,1651002
1683189,1396810,1651302
1683550,1396876,1649954
1683464,1396992,1649788
1683751,1397413,1649455
1683719,1397511,1649142
1684278,1397905,1648225
1683955,1398143,1647484
1684142,1398400,1646603
1684052,1398387,1646954
1684175,1398622,1646087
1684331,1398447,1646109
1684330,1398342,1645217
1683565,1397981,1644945
1683565,1397613,1645348
1683943,1397166,1644787
1683976,1397044,1644538
1683983,1396863,1644716
1683925,1396541,1645142
1683732,1396254,1645388
1683209,1396459,1645389
1683171,1396459,1645259
1682589,1396093,1644493
1683204,1396345,1645338
1682809,1396349,1645968
1683338,1396602,1646388
1683177,1397378,1645330
1683229,1397232,1645969
1683410,1397457,1646186
1683610,1397633,1646251
1683402,1398095,1645777
1683370,1398650,1645654
1683390,1398499,1644593
1683271,1398641,1644760
1683225,1398843,1646105
1683505,1399658,1646155
1683053,1399637,1645534
1683667,1400285,1645748
1684455,1400322,1645801
1683695,1400586,1646031
1684158,1400738,1645890
1684009,1400763,1646073
1684246,1401129,1646767
1684500,1401111,1646008
1684463,1400917,1645858
1684152,1401420,1645291
1684417,1401723,1644978
1684341,1401726,1644557
1684681,1402026,1643402
1685002,1402889,1643400
1685169,1403472,1642962
1685504,1404223,1643795
1685523,1404594,1643822
1685496,1404236,1644395
1685563,1404112,1644668
1685207,1403588,1644995
1685456,1403666,1644347
1685765,1403297,1644630
1685114,1402907,1644247
1684810,1403105,1643980
1684537,1403108,1643710
1684456,1403610,1644298
1684643,1403881,1644849
1684601,1404837,1644405
1684566,1405323,1644683
1684799,1405195,1644461
1684686,1405415,1643849
1684522,1405804,1644350
1685167,1406057,1644996
1684991,1406657,1644481
1684552,1406579,1644020
1684532,1407116,1643861
1684586,1407390,1644800
1684609,1408249,1646046
1684437,1408998,1644888
1684575,1409711,1644828
1684522,1411028,1645412
1684134,1412921,1644819
1684158,1413436,1646339
1684285,1413869,1647096
1684210,1414621,1647522
1684045,1415132,1647822
1683996,1415437,1648760
1684118,1415557,1648377
1684169,1416070,1648668
1684240,1416251,1649287
1684348,1416893,1650040
1684556,1417842,1650399
1684717,1418077,1650907
1684741,1419167,1650931
1684794,1420088,1650775
1684827,1420207,1651353
1684909,1420485,1652083
1685195,1420624,1652091
1684754,1421296,1653239
1684622,1421580,1652812
1684523,1421664,1653658
1684521,1421580,1653873
1684415,1421637,1653248
1684305,1421927,1655193
1684334,1421609,1653088
1684175,1421393,1653880
1684119,1421576,1654027
1684085,1421606,1654522
1684060,1421471,1653915
1684273,1421308,1655730
1684079,1421292,1655006
1684056,1421269,1656072
1684091,1421496,1654582
1684173,1421768,1656177
1683987,1422217,1656800
1683702,1422398,1657844
1683702,1422216,1657116
1683414,1422126,1657849
1683658,1422644,1658025
1683761,1422946,1658648
1683783,1422850,1658299
1683719,1422957,1659481
1683799,1423202,1659715
1683863,1423307,1659903
1683915,1423405,1659854
1684032,1423536,1660241
1683996,1423397,1661181
1683885,1423156,1660766
1683915,1423339,1661604
1683944,1423402,1661741
1684060,1423402,1662341
1683923,1423561,1661651
1683962,1423931,1661449
1683877,1423944,1661379
1684391,1423560,1662112
1684203,1424163,1660840
1684293,1423926,1661976
1684590,1423732,1660178
1684370,1423942,1659847
1683953,1423998,1659036
1684244,1423795,1659678
