GREEN,RED,IR
1526997,1807795,699131
1527535,1808424,725813
1527770,1808660,733458
1528158,1809026,736937
1528037,1809299,736937
1528037,1809185,737220
1527936,1809304,737616
1528179,1809227,739316
1528552,1809710,742923
1528430,1809848,745851
1528651,1810301,747743
1528795,1810903,748692
1529087,1811717,750101
1529125,1812231,751412
1529692,1813015,753296
1529881,1814531,756682
1530279,1816436,759959
1530480,1817967,765306
1530820,1817889,776302
1529957,1805975,798067
1529823,1802107,825667
1529681,1798536,860316
1528213,1795640,875338
1527617,1792871,882236
1527523,1790963,886001
1526890,1789508,885198
1526564,1788943,883805
1526187,1788253,884985
1526005,1787680,888342
1525648,1787642,893285
1525643,1787749,900667
1525388,1787881,911605
1525542,1788030,922382
1525523,1788040,930855
1525386,1788013,936577
1525237,1788333,937696
1525374,1788160,937716
1524630,1788221,937619
1524857,1788359,936971
1524479,1788855,937055
1524479,1789323,939082
1524900,1789143,942211
1524649,1789395,943192
1524867,1789450,940843
1524880,1789416,937338
1524929,1789080,933182
1524681,1789475,929328
1524543,1789174,929173
1524253,1789084,942198
1524703,1789257,953408
1524447,1789505,963799
1524549,1789562,973163
1524434,1789973,979156
1524485,1790231,983949
1524393,1790707,988444
1524910,1790952,993521
1524874,1791494,998945
1525027,1791969,1006869
1525132,1792030,1016447
1525179,1792861,1025429
1525290,1793511,1034414
1525107,1794540,1039409
1525107,1794801,1041575
1525071,1795259,1042557
1525286,1795720,1041692
1525273,1796211,1040278
1525494,1796417,1038448
1525497,1796254,1037424
1525925,1796706,1037537
1526124,1797198,1037103
1526413,1797274,1036321
1526477,1797579,1032343
1526804,1798100,1028977
1526722,1798092,1025185
1526572,1798913,1024174
1526603,1798613,1024181
1526997,1799194,1026709
1527171,1799695,1029206
1527380,1800201,1030773
1527286,1800377,1031196
1527285,1801267,1028332
1527170,1801914,1023753
1527595,1803686,1018662
1527506,1805534,1011659
1527293,1807163,1006687
1527293,1808396,1006922
1527527,1810223,1008462
1527564,1811585,1014625
1528019,1813513,1020959
1528112,1814619,1025654
1528063,1815864,1028678
1528059,1817520,1029859
1528327,1820357,1027208
1528496,1822132,1017154
1528451,1822927,1013880
1528649,1824464,1013371
1528672,1825099,1014136
1528753,1825710,1016783
1528333,1826331,1016341
1528729,1826725,1015842
1529170,1826938,1015879
1529656,1826925,1014747
1529295,1825794,1013144
1529538,1823525,1010194
1529521,1820057,1007988
1529663,1814403,1006940
1529340,1808957,1006698
1528604,1803728,1008949
1528604,1800780,1010510
1528304,1797882,1013556
1527650,1795655,1016595
1527428,1794199,1018616
1527077,1792655,1020510
1526875,1791672,1022667
1526440,1791130,1025939
1526423,1791549,1039700
1526327,1791886,1047885
1526718,1792036,1055219
1526349,1792277,1060708
1526380,1791994,1062754
1526345,1791871,1064025
1526461,1791940,1062922
1526392,1792489,1060285
1526552,1792877,1056890
1526616,1793299,1055283
1526693,1793288,1053228
1526882,1793481,1053801
1527107,1793076,1056951
1527112,1793132,1060847
1527241,1792842,1064314
1526854,1792651,1069300
1526854,1792280,1074553
1526658,1791861,1077949
1526663,1791672,1076886
1526575,1791507,1072961
1526751,1791378,1068036
1526675,1791174,1065651
1526536,1791532,1065008
1527090,1791636,1068208
1526964,1792075,1071930
1526979,1792293,1074420
1527158,1793459,1077129
1527329,1793179,1076587
1527643,1793391,1077164
1527531,1793505,1078048
1527642,1793788,1076887
1527903,1794116,1076673
1528109,1794316,1076872
1528360,1793991,1078313
1528438,1794628,1079432
1528813,1795911,1079823
1529354,1796306,1080724
1529495,1796704,1080370
1529307,1796453,1081733
1529732,1796250,1082107
1529763,1796520,1081910
1529617,1796801,1081428
1529758,1796943,1080546
1529851,1796894,1079787
1530001,1797026,1080718
1530196,1796888,1080100
1530195,1797201,1077853
1530393,1797143,1075861
1530458,1796935,1074389
1530566,1797266,1072777
1530722,1797462,1072776
1530952,1797837,1074303
1531348,1798014,1075129
1531427,1797828,1077879
1531550,1798021,1080067
1531804,1798595,1086162
1531990,1799186,1093658
1532077,1799449,1105196
1531735,1799513,1116766
1531735,1798159,1129665
1531528,1796264,1142016
1531554,1793595,1153455
1531344,1790432,1163800
1531014,1787697,1171963
1529893,1784789,1176997
1528970,1782400,1178552
1528318,1779884,1179796
1527922,1778163,1182278
1527144,1777106,1192841
1526877,1776437,1197850
1526459,1776133,1200727
1525937,1775472,1202147
1525605,1775704,1201307
1525454,1776157,1198548
1525255,1776651,1195054
1525301,1776994,1193294
1525067,1777451,1190514
1524967,1777397,1187199
1524668,1777540,1185164
1525005,1777921,1184452
1524924,1778273,1183124
1524635,1778877,1181925
1524513,1778982,1181604
1524513,1779450,1178088
1524449,1779323,1175615
1524437,1779513,1174060
1524565,1779574,1175180
1524321,1779147,1178754
1524383,1778762,1181520
1523913,1778479,1184485
1524034,1778210,1185995
1523591,1778264,1185713
1523722,1778285,1184061
1523719,1778297,1181330
1523463,1778089,1178874
1523454,1778637,1174936
1523672,1779061,1173103
1523797,1779435,1170580
1524088,1779899,1168864
1524038,1780224,1167509
1524133,1780565,1167199
1524166,1780752,1165612
1524270,1781441,1165936
1524105,1782458,1165963
1524349,1782758,1166876
1524349,1783534,1169627
1524093,1783737,1171319
1524227,1784254,1171153
1524307,1784754,1171105
1524654,1785120,1170568
1524775,1785121,1170866
1524995,1785608,1171091
1524995,1785871,1173232
1525227,1786177,1178448
1525181,1786641,1179881
1525366,1786915,1181534
1525678,1786867,1180124
1525711,1786942,1177487
1525773,1787335,1174280
1526070,1787562,1173104
1526170,1787649,1172130
1526308,1787765,1172814
1526562,1787658,1174014
1526667,1787800,1173772
1526660,1788488,1173876
1526948,1789001,1173448
1526648,1789509,1170414
1526607,1789935,1165670
1526607,1790277,1162563
1526696,1790619,1160977
1526790,1790952,1161242
1527015,1791052,1163497
1527254,1790977,1164886
1527169,1791334,1166660
1527457,1792401,1168087
1527735,1793247,1169597
1528003,1793539,1164261
1527856,1794138,1158561
1528266,1793602,1155240
1528201,1792590,1154892
1528025,1790713,1157340
1527703,1787885,1160489
1527483,1784823,1162489
1526924,1781778,1162781
1526311,1779206,1162170
1525472,1775460,1157625
1524709,1772661,1151383
1523743,1770332,1144792
1523013,1768831,1139945
1521821,1767788,1140397
1521326,1766928,1144147
1521326,1766597,1147918
1520786,1766695,1153037
1520113,1766618,1156270
1519709,1767090,1159192
1519469,1767125,1160508
1518889,1766944,1160776
1517996,1766918,1164054
1517658,1766829,1170241
1517603,1766822,1173429
1516838,1766785,1172680
1517037,1766966,1170156
1516816,1766738,1166032
1516461,1767113,1159799
1516249,1766733,1156445
1516550,1767319,1155852
1516554,1767672,1157378
1516473,1767785,1162799
1516397,1767390,1170504
1516011,1767075,1179824
1515949,1767173,1187523
1515887,1767085,1191344
1515935,1767425,1190389
1515128,1767951,1189214
1515128,1767579,1189210
1515027,1767828,1189003
1514644,1768054,1190836
1515217,1768326,1192249
1514846,1768211,1194311
1514682,1768388,1196706
1514711,1769950,1196832
1514809,1770364,1196732
1515030,1770809,1197167
1515039,1771497,1196460
1515181,1772123,1195518
1515131,1772023,1196709
1514986,1772425,1197095
1515340,1773004,1195016
1515650,1773425,1193792
1515622,1773841,1190414
1515921,1774329,1189430
1516159,1774620,1189514
1516413,1774968,1191716
1516284,1775286,1195881
1516495,1776022,1201400
1516527,1776588,1205760
1516609,1776991,1208310
1516609,1777240,1208543
1516687,1777380,1207895
1516571,1777796,1203074
1516903,1778767,1198663
1516894,1778274,1198484
1516748,1778287,1199716
1517445,1779607,1200885
1517726,1779648,1202269
1518063,1780185,1202102
1518116,1780529,1200259
1518110,1780720,1196521
1518243,1780623,1190518
1518233,1780911,1189578
1518486,1781489,1189371
1518896,1782118,1188502
1518974,1782558,1187740
1519354,1782991,1185874
1519479,1783219,1184093
1519689,1783496,1182881
1519805,1783574,1178887
1519972,1784549,1175806
1519867,1785407,1173359
1520296,1786575,1173780
1520683,1787376,1175765
1520741,1787422,1178292
1520826,1787854,1180384
1521043,1788464,1182723
1521206,1789052,1184020
1521233,1789399,1184940
1521472,1789933,1183905
1521648,1790899,1182119
1521878,1791306,1182954
1521847,1791691,1182052
1521976,1791227,1179182
1521833,1789216,1177748
1521428,1785697,1174627
1521324,1782563,1171242
1520903,1779223,1170426
1520255,1776086,1168978
1519687,1772681,1170809
1518953,1769935,1175465
1518064,1767404,1182782
1517647,1765904,1191743
1516969,1765133,1199106
1515889,1764614,1204911
1515889,1764337,1207432
1515553,1764456,1206219
1515116,1764951,1202597
1514837,1765170,1196909
1514536,1765587,1194392
1514287,1765922,1191249
1513854,1766562,1192118
1513634,1766686,1201375
1513695,1766617,1205452
1513570,1766538,1211627
1513370,1766691,1215194
1513189,1766826,1219716
1513047,1767381,1220686
1512654,1767570,1223444
1512425,1767979,1224410
1512781,1768364,1226873
1512819,1768788,1228019
1513121,1769381,1228928
1513045,1770184,1228104
1512877,1770602,1225882
1512881,1771463,1224996
1513199,1772117,1223965
1513120,1772981,1225979
1513443,1773485,1228604
1513503,1773764,1235124
1513477,1773845,1240877
1513486,1774390,1244280
1513846,1775179,1245685
1513963,1776114,1247016
1514454,1776441,1245824
1514691,1776726,1244426
1514795,1776960,1239103
1514791,1777356,1239722
1515106,1777958,1240288
1515104,1778614,1243693
1515129,1779024,1246615
1515129,1779112,1249185
1515280,1779380,1249723
1515256,1779931,1250398
1515406,1780459,1250946
1515709,1780378,1252255
1515666,1780968,1254693
1516417,1781668,1258506
1516717,1782011,1263646
1516938,1782291,1268928
1516938,1782636,1274524
1517145,1782639,1279994
1517214,1782432,1284979
1517272,1782966,1287278
1517564,1783069,1288816
1518288,1783318,1290741
1518313,1783355,1294102
1518639,1783459,1296871
1518650,1783706,1301330
1518639,1783672,1310260
1518848,1784145,1314777
1519152,1784912,1320284
1518849,1785315,1325792
1518849,1785575,1330473
1519062,1785804,1334702
1519128,1786159,1336326
1519204,1786480,1334255
1519323,1786890,1328087
1519754,1786936,1322375
1519569,1787406,1318807
1520130,1787341,1316627
1520459,1787384,1316416
1520778,1786849,1317082
1520645,1785968,1317111
1521171,1784926,1318648
1521274,1784148,1320068
1521416,1783276,1321639
1521767,1781246,1323641
1521967,1778429,1325933
1521532,1774183,1331042
1521195,1769163,1334385
1520841,1763776,1338031
1520278,1758472,1339859
1519542,1753232,1341167
1518414,1748468,1342623
1516928,1744163,1341604
1516928,1740761,1342419
1516061,1737844,1342315
1515057,1735730,1343079
1514330,1733471,1342671
1513202,1730308,1342602
1512703,1726991,1339874
1510411,1719186,1337081
1510065,1715636,1333179
1509449,1711956,1331619
1508929,1708510,1330186
1507912,1704899,1330114
1507424,1701223,1328859
1506757,1697435,1330419
1506395,1692572,1329310
1505773,1686301,1326848
1505507,1679808,1322764
1504555,1673206,1316516
1504239,1666985,1310202
1503429,1660755,1301679
1502987,1656213,1289406
1502040,1652639,1284107
1501309,1650353,1277512
1500266,1648206,1269502
1500266,1646778,1260958
1499524,1645264,1253360
1498618,1645158,1243123
1497807,1645015,1232977
1497204,1646048,1224697
1496235,1646900,1215950
1494438,1647753,1211603
1493844,1647835,1207841
1493557,1647196,1203628
1493247,1647481,1200664
1492856,1647387,1199469
1492344,1647460,1198975
1491881,1648520,1199355
1491739,1649928,1204078
1491767,1651272,1211720
1491683,1652790,1220946
1491376,1654016,1230670
1491380,1655183,1239838
1491129,1656210,1254836
1490975,1657117,1259959
1490945,1658364,1265328
1490802,1659449,1268736
1490523,1660355,1270691
1490523,1660699,1273760
1490767,1661946,1276585
1490696,1662375,1279264
1490810,1662970,1282609
1490895,1662457,1285996
1490795,1662693,1289103
1490859,1661969,1290864
1491061,1662472,1290217
1491036,1663300,1291150
1491053,1664695,1291145
1491097,1665795,1290872
1490983,1666101,1291871
1491108,1668113,1292247
1491419,1668989,1290686
1491687,1669510,1289936
1491960,1669904,1286406
1491967,1669869,1283889
1492085,1670067,1281624
1492384,1670545,1282664
1492337,1671278,1284169
1492334,1672269,1285548
1492384,1672630,1287863
1492384,1673273,1289762
1492304,1674075,1291962
1492715,1674664,1293892
1493177,1675456,1295726
1493378,1676054,1297146
1493502,1676963,1298483
1493603,1677383,1301742
1494405,1677613,1302975
1494432,1677582,1303856
1494681,1677539,1305039
1495082,1677358,1307075
1495217,1676967,1308145
1495495,1676750,1308865
1495633,1676691,1309001
1495990,1676745,1308420
1496403,1675634,1305103
1496394,1675184,1301966
1496334,1673219,1295595
1495650,1670511,1285576
1495095,1667373,1286140
1494090,1664208,1284557
1492322,1659927,1283334
1492322,1656356,1282541
1490797,1652391,1284989
1489274,1648911,1287907
1487682,1646049,1292594
1486213,1644249,1296988
1484521,1642283,1300940
1481038,1642576,1306570
1480090,1643153,1309975
1479389,1643844,1312942
1478688,1643799,1313843
1477220,1641902,1314119
1475307,1638736,1314820
1473910,1638899,1317512
1472798,1639596,1320283
1471640,1639369,1322969
1471358,1639562,1324518
1470795,1639071,1325673
1470592,1639172,1325782
1470099,1640361,1325912
1469189,1641393,1327791
1469080,1642525,1329075
1468710,1643662,1330559
1468656,1645613,1331421
1468708,1649597,1333255
1468848,1655615,1334093
1469847,1661893,1335341
1470915,1663525,1336341
1471438,1664636,1338032
1471854,1666039,1340310
1472152,1666565,1341331
1472776,1667327,1342508
1472907,1668456,1344869
1472956,1669455,1344130
1473157,1670189,1344770
1473499,1671321,1343625
1474016,1672409,1343763
1474149,1674236,1345836
1474456,1675389,1346674
1474746,1676410,1349124
1474989,1677244,1352269
1475502,1678043,1356579
1476214,1678503,1363483
1476688,1678875,1368715
1476816,1679566,1373526
1477145,1680269,1378890
1477498,1681481,1381537
1477698,1682654,1383905
1477819,1684547,1384326
1477995,1686502,1383625
1477995,1688489,1381849
1478534,1690594,1382536
1478697,1692264,1383749
1479312,1694412,1385358
1479648,1695904,1387911
1480087,1697133,1389981
1481327,1699574,1390479
1481822,1700514,1391652
1482363,1700830,1392463
1482860,1701443,1393205
1483237,1702035,1393792
1483580,1702214,1396647
1483891,1702210,1399660
1484425,1702492,1402728
1484837,1703064,1404715
1485439,1703549,1402718
1485890,1703980,1401288
1486701,1704084,1397405
1486839,1704520,1394728
1486999,1705178,1390641
1487449,1705251,1392908
1487448,1706021,1392783
1487240,1705226,1394829
1487240,1703118,1395425
1487332,1699828,1395852
1486854,1696277,1392910
1486456,1692876,1389687
1485653,1689126,1382258
1484808,1686122,1373812
1481882,1682587,1365760
1481208,1681928,1360010
1480446,1681420,1358468
1479860,1681510,1360157
1479291,1681650,1362904
1478910,1681766,1365475
1478630,1682252,1369098
1478623,1682718,1371328
1478649,1683319,1375999
1478690,1683710,1383519
1478570,1683887,1386785
1478520,1684184,1390367
1478303,1684637,1392547
1478260,1684715,1392294
1478109,1685362,1389869
1477685,1686071,1384891
1477685,1686714,1380882
1477890,1686979,1375706
1477978,1687017,1373982
1478009,1687354,1372025
1478300,1687080,1370798
1478288,1686578,1371988
1477929,1686977,1371289
1477689,1687038,1369407
1477706,1687240,1370001
1478039,1687669,1368636
1477813,1687751,1367537
1477516,1687560,1367085
1477750,1687965,1368392
1477640,1688141,1369663
1478232,1688344,1371394
1478255,1688560,1372275
1478387,1689153,1372856
1478729,1689461,1371319
1478927,1690236,1369837
1478823,1691100,1367742
1479096,1691962,1366390
1479123,1692797,1365253
1479123,1693396,1365789
1479263,1693940,1366992
1479744,1694913,1368443
1479933,1695855,1368102
1480138,1696327,1367807
1480536,1696873,1365426
1481316,1697798,1361532
1481727,1698341,1357684
1482007,1698149,1355225
1482419,1698661,1355187
1482732,1698534,1355326
1482867,1698513,1357165
1483234,1698321,1356550
1483606,1698955,1353082
1483923,1698994,1349288
1484358,1699298,1344564
1484685,1699036,1338198
1484845,1698701,1334964
1485036,1698615,1335008
1485606,1698904,1337337
1485718,1699018,1338154
1485783,1699390,1340746
1485961,1699268,1341565
1485961,1699294,1340248
1486336,1699102,1339397
1486795,1699212,1341332
1487054,1698846,1346612
1487112,1698052,1355592
1487579,1697540,1364010
1487773,1697723,1373036
1488738,1698409,1382577
1488916,1698539,1389189
1489273,1699119,1392679
1489572,1699528,1394361
1489772,1699626,1394452
1489755,1699277,1393852
1490398,1699038,1395333
1490871,1698786,1397744
1491354,1699001,1397214
1491304,1698311,1391826
1491450,1697524,1384976
1491785,1696104,1377564
1491964,1693957,1369171
1491569,1690642,1365549
1490387,1686043,1364358
1490387,1680256,1364841
1489650,1675072,1369979
1488513,1669132,1373286
1487539,1664187,1376493
1486168,1658068,1377810
1484480,1652309,1377806
1483223,1646523,1376773
1479430,1635357,1376034
1478315,1630942,1373969
1477175,1627171,1374445
1476565,1623992,1373860
1475565,1621263,1376570
1474800,1619449,1381831
1474079,1618361,1388083
1473397,1618388,1394702
1472553,1618086,1401791
1472360,1617517,1407544
1471778,1615919,1420347
1471141,1614106,1424132
1470749,1612803,1429963
1470081,1611103,1440356
1469711,1609733,1449887
1468848,1608432,1462131
1468848,1607287,1477404
1468403,1606068,1490547
1467807,1605326,1498902
1467502,1605073,1503638
1466825,1604678,1505972
1466176,1604051,1508160
1464669,1605045,1512238
1464350,1605721,1516151
1464019,1605792,1519879
1463403,1606511,1526380
1463226,1606768,1534735
1463083,1607317,1545883
1462782,1608467,1555849
1462895,1610127,1566233
1462952,1611393,1576647
1462969,1612953,1588605
1463431,1613556,1606614
1463361,1613689,1612073
1463372,1614100,1615992
1463341,1614571,1618579
1463296,1616335,1621381
1463379,1618488,1624397
1463214,1621178,1628867
1463214,1622435,1634490
1463696,1623892,1640813
1463680,1624287,1648183
1464063,1624538,1655595
1464301,1624433,1660642
1464523,1624617,1666864
1464902,1626818,1671593
1465193,1627965,1674487
1465406,1629320,1675076
1465820,1630319,1674637
1465840,1631155,1671198
1465947,1630686,1667916
1466093,1630644,1660727
1466480,1630434,1653378
1466628,1630729,1648517
1467059,1631400,1645003
1467293,1632683,1646800
1467283,1633468,1649494
1467474,1634499,1651236
1467807,1635304,1652676
1468290,1635976,1652913
1468794,1636176,1651740
1468794,1635936,1651914
1468528,1635982,1650321
1468935,1636331,1647817
1469215,1636724,1646938
1469433,1637526,1647583
1469589,1637928,1646153
1469942,1638955,1648700
1470718,1640177,1649152
1471006,1640671,1648162
1471545,1640975,1645305
1471815,1641379,1641338
1472051,1642023,1634915
1472352,1641975,1628146
1472486,1642829,1619534
1472839,1643647,1612495
1473409,1644878,1605570
1473951,1646003,1600401
1474569,1650416,1590818
1474292,1646170,1585575
1470763,1631062,1583134
1469468,1626224,1582073
1467456,1621870,1581994
1465697,1618258,1583972
1463873,1615653,1586784
1462124,1614493,1588919
1460725,1614256,1592262
1460079,1614853,1595579
1459011,1615596,1598286
1458455,1616644,1598460
1457619,1617172,1598443
1457172,1617966,1598081
1456656,1619071,1599833
1456357,1620062,1600611
1455957,1621477,1606164
1455804,1622993,1609189
1455741,1624478,1612447
1454969,1625715,1614047
1454440,1626838,1616624
1454511,1627636,1617567
1454058,1627643,1615962
1453938,1627421,1615086
1453938,1626789,1613412
1453640,1625906,1613420
1453602,1625313,1612708
1453390,1625578,1614359
1453188,1625607,1614792
1452784,1626054,1615156
1452357,1628715,1615444
1452192,1629648,1616689
1452181,1630388,1618657
1452191,1630835,1620684
1452191,1630648,1621332
1452212,1630983,1623263
1452130,1631451,1623365
1452274,1631968,1624633
1452742,1632515,1625974
1452980,1632926,1626597
1453176,1633275,1626865
1454078,1634269,1627532
1454548,1634124,1627585
1454893,1634573,1628908
1455470,1635733,1630754
1455909,1636807,1632718
1456007,1638481,1635733
1455858,1639891,1634973
1456174,1641583,1633231
1456431,1643192,1629644
1456933,1645373,1628532
1457194,1647022,1624579
1457619,1648574,1623723
1457791,1650182,1621591
1458111,1651684,1623515
1458478,1652847,1623702
1459196,1653675,1624306
1459515,1654355,1622091
1460097,1654803,1622920
1460560,1655107,1619453
1460713,1655273,1619818
1461157,1655568,1618878
1461399,1656101,1619532
1461839,1656827,1619494
1461839,1657589,1620276
1462127,1657966,1623978
1462494,1658053,1626881
1462989,1658146,1630956
1463376,1657548,1634960
1463847,1656889,1642837
1464852,1656337,1646982
1465224,1656962,1652504
1465549,1657509,1658094
1466138,1658336,1662273
1466112,1659790,1666923
1466594,1660631,1671370
1466892,1661665,1673828
1467472,1662206,1675472
1467907,1662818,1676160
1468551,1663404,1677573
1468799,1664229,1678103
1469229,1664554,1682360
1469693,1665193,1684532
1469989,1666161,1687742
1470454,1666700,1692297
1470705,1667674,1696802
1470895,1667605,1699396
1470895,1667387,1701851
1471102,1666106,1702566
1471146,1664348,1703327
1470782,1661671,1700972
1470276,1658892,1700453
1469279,1656298,1698374
1465233,1651177,1696221
1463867,1649449,1694497
1462602,1647691,1693668
1461452,1646085,1693191
1460379,1644259,1694211
1459315,1643228,1695890
1458629,1643313,1696888
1457919,1644030,1698466
1457857,1644709,1697129
1457602,1645550,1696270
1457303,1645811,1694215
1456861,1645998,1693936
1456421,1646328,1692148
1456085,1645759,1691634
1455576,1645359,1692031
1455064,1645123,1692907
1455064,1645013,1692497
1454979,1644852,1692346
1454561,1645727,1691825
1454582,1645979,1691912
1454332,1645515,1690734
1454595,1644849,1689825
1454168,1644155,1684916
1453560,1642108,1683820
1453126,1642030,1682147
1452914,1642949,1680130
1452537,1643679,1679073
1452190,1644604,1677890
1452112,1646087,1677252
1452214,1646483,1676755
1452356,1646832,1675147
1452586,1647090,1671605
1452621,1646687,1667563
1452490,1646370,1662695
1452826,1646789,1657824
1452825,1647535,1653818
1452841,1648829,1650680
1453070,1649592,1647923
1453070,1650166,1646403
1453146,1650372,1646641
1453148,1649895,1645124
1453757,1649624,1646594
1454012,1649525,1646805
1453957,1649337,1647129
1454163,1650051,1645676
1454664,1651498,1642324
1455100,1652204,1640386
1455258,1652607,1637037
1456088,1651809,1634324
1456670,1652728,1632421
1457437,1654316,1630800
1458296,1653651,1629022
1459216,1653709,1628179
1459278,1654559,1629476
1459709,1654512,1631073
1459724,1654760,1632801
1460316,1655085,1634463
1460216,1655891,1635942
1460513,1656239,1637049
1460619,1657103,1639672
1461098,1657940,1640607
1461136,1659492,1643652
1461451,1660081,1644473
1461684,1660531,1646040
1462106,1661189,1647327
1462598,1661775,1647706
1463055,1661594,1648895
1463439,1661490,1651514
1463978,1661339,1650843
1464169,1661125,1650631
1464231,1661709,1649864
1464539,1662775,1649059
1464746,1663675,1648792
1464883,1664017,1649369
1464531,1662692,1649859
1464531,1659455,1650433
1463705,1655121,1652151
1462502,1650272,1654978
1461338,1645918,1656512
1459795,1641866,1657819
1457444,1639062,1657939
1452233,1635784,1658589
1450866,1635180,1659211
1449744,1634122,1660349
1448715,1633258,1661339
1448037,1632642,1661075
1447238,1632039,1660903
1446822,1631758,1660048
1445312,1633486,1659106
1444238,1634022,1658604
1443390,1634716,1655023
1442959,1636029,1653018
1443191,1636602,1652814
1443328,1636447,1652831
1443057,1636312,1654222
1442807,1636383,1654718
1442147,1636763,1656570
1442196,1637486,1658171
1442211,1637936,1659352
1442206,1638609,1659976
1442115,1639042,1659993
1442159,1639222,1659389
1442186,1639672,1658113
1442697,1640703,1657130
1443511,1643761,1656518
1444479,1647749,1656004
1445108,1648968,1657748
1445712,1649195,1658649
1446182,1648675,1659967
1446361,1648754,1661049
1446453,1649008,1662663
1446637,1649485,1663231
1446864,1650183,1662873
1447209,1650988,1661674
1447433,1652089,1660142
1447822,1652495,1655858
1448084,1652951,1654886
1448368,1653384,1651646
1448812,1653537,1651442
1449269,1653467,1651472
1449603,1653791,1651189
1449802,1654168,1650491
1450154,1654859,1650019
1450333,1655966,1650643
1450716,1656509,1651544
1450874,1657184,1651820
1451243,1658037,1653431
1451472,1658390,1655268
1451472,1659060,1657145
1452041,1659259,1659897
1452346,1659712,1659235
1452656,1660817,1658751
1452946,1661073,1655916
1453488,1661780,1652863
1454580,1662779,1648813
1455195,1663435,1643000
1455534,1663431,1641982
1455935,1663289,1642592
1456251,1663782,1642293
1456428,1664643,1642430
1456780,1665904,1643452
1457306,1667542,1643713
1458052,1668637,1644010
1458337,1669899,1643757
1459135,1670121,1643568
1459190,1670071,1641916
1459665,1670448,1643072
1460441,1670439,1642287
1460737,1670496,1643043
1460737,1671035,1643383
1460443,1671335,1643396
1460866,1672808,1644370
1461538,1674240,1646940
1461907,1675300,1646293
1462462,1675535,1646229
1462626,1673802,1646389
1462544,1670767,1646227
1460379,1661902,1647112
1458799,1657336,1648809
1457043,1653161,1651566
1454995,1649256,1652835
1452897,1646452,1656291
1451004,1644267,1657202
1449564,1642392,1659072
1448516,1641234,1660808
1447665,1640800,1663275
1446601,1640494,1664008
1446322,1640713,1665478
1445638,1642002,1664830
1445463,1643104,1665668
1445191,1644696,1665189
1444645,1645832,1666710
1444645,1646721,1664289
1444498,1646537,1664512
1444392,1645734,1664511
1444124,1645055,1665891
1443878,1644168,1665928
1443542,1643582,1667976
1443208,1643848,1669022
1443079,1644468,1668914
1442933,1644948,1666764
1443074,1644968,1662745
1442957,1644995,1661144
1442770,1644695,1660617
1442471,1644011,1661437
1442618,1643945,1661845
1442525,1644094,1663547
1442627,1644691,1664391
1442699,1645021,1665766
1442602,1645177,1666341
1442819,1645282,1665737
1442550,1645602,1666632
1442733,1645575,1666487
1442580,1645578,1665586
1442462,1645673,1668010
1442462,1646446,1668520
1442652,1646969,1670746
1442826,1648334,1670814
1443188,1650039,1671580
1443400,1651809,1670598
1443845,1653289,1671801
1445114,1656546,1669743
1445415,1657712,1670487
1445682,1658003,1672233
1446394,1658274,1671898
1446729,1657977,1675328
1446792,1658220,1674857
1447233,1659028,1676125
1447726,1660220,1676792
1448339,1661874,1677493
1448704,1663100,1677905
1448963,1664169,1678374
1449501,1664675,1679903
1449831,1664727,1681341
1450244,1664459,1682836
1450503,1664029,1685855
1450742,1663837,1688899
1450742,1663640,1690586
1450966,1664330,1692286
1451128,1664839,1692693
1451635,1665677,1693837
1452101,1666689,1695110
1452388,1667693,1694766
1453707,1669815,1696418
1454225,1670133,1697215
1454641,1670567,1697821
1454958,1670542,1699196
1455513,1671142,1696988
1455946,1671084,1695689
1456210,1671360,1694112
1456846,1672352,1691947
1457288,1672766,1690509
1457901,1672972,1688054
1458372,1673023,1686385
1458988,1672921,1684569
1459591,1672782,1683395
1459715,1672301,1683350
1460201,1672501,1681698
1460173,1672692,1680955
1460473,1672873,1679969
1460473,1673661,1679975
1460904,1674257,1681284
1461481,1674576,1681265
1461922,1674317,1681363
1462300,1673439,1681413
1462728,1672350,1681045
1463471,1670062,1681351
1463765,1668414,1681200
1463740,1665626,1683405
1463043,1662339,1685377
1459062,1648220,1685589
1453204,1634623,1686597
1448663,1629411,1687154
1446130,1629907,1687960
1445469,1629425,1689225
1445123,1628847,1689975
1444368,1627998,1690050
1444319,1627438,1691343
1443833,1628218,1692380
1443220,1628737,1693141
1442683,1629727,1694892
1442796,1630555,1695724
1442700,1631944,1697500
1442704,1632898,1699153
1442570,1633149,1699990
1442667,1633157,1700092
1442310,1633078,1700024
1442225,1632725,1699447
1442117,1633746,1699863
1441998,1634866,1699158
1442203,1635877,1699967
1442095,1636928,1701560
1441796,1637788,1702553
1441831,1638350,1703533
1441888,1638842,1703470
1441824,1639339,1703423
1441724,1639714,1702232
1441724,1639834,1702640
1442074,1639817,1701712
1441952,1640144,1701264
1442597,1640698,1699394
1442755,1641027,1699067
1443011,1641077,1698723
1443843,1643734,1698322
1444156,1645282,1699597
1444621,1646045,1700687
1445087,1647083,1699507
1445256,1647430,1699384
1445508,1647699,1699478
1445856,1647962,1697563
1446082,1648550,1694107
1446565,1648706,1689333
1447052,1649330,1683118
1447584,1650001,1676535
1447934,1650334,1670216
1448218,1650541,1670579
1448712,1650776,1671438
1448903,1651104,1672301
1449043,1651173,1673797
1449043,1650728,1677005
1449005,1650151,1680249
1449525,1649309,1682131
1449563,1648829,1683704
1450040,1648255,1683821
1450258,1647563,1683342
1450932,1647918,1681149
1451167,1648006,1677011
1451530,1648481,1674483
1451665,1648032,1672434
1452129,1647757,1673502
1452111,1646779,1676225
1452445,1646452,1680411
1452575,1646556,1684141
1453520,1647624,1687707
1454666,1650187,1693289
1455777,1650648,1696959
1456640,1649172,1699726
1456967,1650119,1702906
1457377,1650508,1703178
1457706,1651742,1704027
1457863,1653316,1704915
1458026,1654575,1704376
1458380,1655063,1705882
1458326,1653998,1704057
1457864,1651387,1703505
1456971,1647125,1704015
1455385,1642119,1706038
1453573,1637324,1707957
1451578,1633142,1709235
1449732,1629765,1711622
1448010,1626980,1711871
1446261,1624993,1713479
1444926,1623323,1712690
1443243,1621870,1712712
1442556,1620861,1711355
1441738,1619812,1709449
1440904,1619370,1710188
1440435,1619105,1711976
1440435,1619038,1714843
1440166,1619250,1720349
1439825,1619996,1720349
1439565,1620594,1720927
1439146,1620467,1720894
1438822,1620381,1721341
1438049,1619576,1720913
1437929,1619041,1721512
1437742,1618828,1722448
1437683,1618787,1723532
1437636,1619290,1723829
1437555,1619922,1723999
1437421,1620863,1724170
1437637,1620807,1722783
1437972,1621148,1721549
1437814,1620715,1719971
1437941,1620603,1719310
1437556,1619432,1720362
1437523,1620039,1719338
1437620,1620952,1719848
1437613,1622288,1718406
1437437,1623019,1719312
1437437,1623855,1718483
1437639,1624676,1717102
1437893,1625584,1716381
1438265,1625642,1715113
1438328,1625351,1714722
1438500,1624462,1715682
1439413,1623124,1716868
1439647,1623344,1717307
1439894,1623953,1716771
1440191,1624992,1717518
1440447,1625546,1715609
1440565,1626203,1716972
1441014,1626762,1717347
1441487,1627434,1719622
1442168,1627168,1722124
1442527,1626929,1723768
1442622,1626202,1722232
1442880,1625549,1722225
1443302,1625153,1720744
1443498,1624911,1720337
1443727,1624849,1720196
1443716,1625278,1719919
1443716,1624889,1721610
1444013,1624643,1721136
1444392,1624346,1721672
1444724,1624421,1720472
1444827,1624685,1719910
1444969,1625693,1719604
1445650,1630045,1721258
1446055,1632046,1723207
1446610,1633708,1725264
1446981,1634480,1728489
1447275,1635147,1729739
1447440,1635464,1730323
1448017,1636127,1731590
1448567,1637095,1730062
1448896,1638564,1729676
1449447,1639970,1728855
1449989,1641191,1729384
1450544,1642262,1728405
1450738,1642972,1730645
1451289,1643547,1730033
1451858,1643756,1730566
1451960,1643287,1729963
1451960,1642419,1730292
1452417,1641963,1728085
1452746,1642302,1728223
1453173,1643541,1727677
1453740,1644675,1728116
1454062,1645851,1729170
1455203,1648961,1729119
1455751,1649711,1731007
1456389,1649556,1729655
1456757,1649374,1730575
1457313,1649122,1730256
1457683,1648830,1731179
1457850,1648795,1731289
1457897,1648015,1733658
1457837,1645971,1734766
1457008,1642915,1736045
1456008,1638792,1737707
1454339,1634036,1739529
1452455,1629209,1740767
1450488,1624828,1743229
1448916,1621149,1743841
1446519,1618046,1744357
1446519,1615927,1745418
1445400,1614552,1747218
1444430,1613014,1747878
1443535,1612476,1750473
1442869,1611653,1750727
1442396,1610858,1751267
1441270,1609977,1753159
1441102,1610856,1750945
1440911,1611519,1752660
1440663,1611146,1750910
1440322,1611335,1751152
1440183,1611658,1752039
1439950,1610866,1753463
1439801,1609952,1752652
1439942,1608712,1755404
1440313,1607721,1755444
1440187,1606238,1757933
1440269,1604857,1758412
1440162,1604193,1759521
1440343,1604108,1760605
1440236,1603402,1761551
1439830,1603991,1762926
1439405,1603853,1763948
1439405,1603878,1764962
1439722,1603142,1765220
1439739,1602839,1765127
1439307,1602282,1766656
1439488,1602061,1767494
1439635,1602756,1767474
1440146,1604064,1768884
1440278,1604504,1769446
1440649,1604646,1770918
1441108,1604958,1769982
1441563,1604801,1769961
1441568,1604142,1768753
1442063,1604085,1767750
1442411,1603990,1765276
1442824,1603998,1764982
1443222,1603851,1764435
1443382,1604453,1765600
1443672,1604487,1764767
1444091,1604476,1765242
1444720,1603904,1764794
1444760,1603101,1764659
1445002,1601597,1764424
1445231,1600045,1764345
1445231,1598103,1763518
1445567,1597922,1764775
1445886,1597759,1764573
1446119,1597364,1765116
1446360,1597671,1766356
1446397,1598273,1768907
1447302,1597988,1769976
1447453,1597634,1770224
1447800,1597212,1772091
1448313,1596482,1771384
1448333,1595464,1773243
1448445,1594341,1772901
1448558,1594326,1773340
1448970,1593940,1773947
1449691,1593149,1773730
1450558,1592412,1773956
1451472,1592000,1774920
1451711,1592173,1774616
1452103,1591304,1775593
1452042,1591121,1776527
1452553,1590482,1777324
1452705,1591719,1779548
1452560,1592789,1781082
1452794,1593940,1781048
1452885,1593794,1782078
1452539,1592262,1783203
1451573,1589553,1783587
1450101,1586272,1783786
1448457,1582560,1786397
1446713,1579228,1787898
1444848,1576020,1788888
1442908,1573425,1789455
1438897,1567567,1791123
1436756,1563405,1790534
1435816,1558872,1792062
1436013,1558636,1790415
1435628,1558564,1791399
1435452,1559089,1790960
1435196,1560451,1790762
1434808,1561282,1790719
1434540,1561533,1790638
1434758,1561758,1790201
1434743,1561782,1790949
1434795,1561483,1790390
1435067,1560482,1791678
1434759,1561731,1791221
1434588,1562084,1790226
1434891,1563133,1788804
1434930,1564723,1786927
1435667,1565573,1784238
1435950,1566470,1783680
1436111,1566640,1781520
1436308,1566646,1780713
1436503,1566111,1779367
1436795,1565694,1778299
1437136,1565818,1776564
1437388,1566347,1776141
1437747,1567012,1775499
1437856,1567823,1775073
1438181,1568799,1773820
1438454,1569780,1774808
1438940,1570339,1774327
1439491,1570605,1775087
1439900,1570556,1774293
1440042,1570552,1771636
1440145,1570554,1769562
1440463,1571788,1767263
1440882,1572869,1766300
1441011,1573730,1764644
1441232,1574214,1763648
1441232,1574561,1762636
1441667,1574550,1761968
1441705,1574511,1762308
1442710,1574534,1762141
1442717,1574262,1762037
1443280,1575121,1762695
1443053,1576499,1764713
1443166,1577737,1765922
1443843,1579062,1765894
1444125,1579535,1766193
1444420,1579926,1765508
1444742,1579820,1764252
1444958,1579653,1764457
1445228,1580160,1763226
1445832,1580744,1764082
1446464,1581700,1762537
1446594,1582683,1763710
1447140,1584278,1763499
1447386,1584738,1764635
1447766,1585307,1764573
1448052,1585082,1765881
1448232,1584633,1765508
1448719,1583892,1765827
1448719,1582826,1766409
1448640,1582586,1768110
1449083,1582849,1769944
1449306,1584330,1770122
1449770,1585347,1771500
1449966,1586005,1771470
1450101,1585826,1771915
1448298,1579997,1771221
1446856,1575318,1769935
1444986,1570051,1769017
1443097,1565111,1769693
1441016,1560581,1768863
1439257,1556968,1768723
1437675,1553500,1768323
1436712,1550415,1768082
1435617,1547955,1768709
1434658,1545837,1768752
1434232,1544083,1767911
1433790,1543367,1766819
1433472,1543494,1766550
1433220,1544785,1765013
1432978,1546082,1763854
1432978,1547667,1763034
1432941,1548860,1763109
1432929,1549684,1763784
1432934,1549680,1763915
1432766,1548398,1764959
1432803,1546915,1765647
1432218,1545191,1766537
1432250,1545245,1767841
1432265,1545904,1767631
1432605,1547249,1767468
1432670,1548249,1767243
1432796,1549230,1766611
1432763,1550655,1764407
1432937,1552297,1763713
1433235,1554721,1764446
1433738,1556922,1764018
1433728,1559075,1764740
1433909,1561104,1766003
1434222,1563052,1765869
1434524,1563991,1771596
1435002,1564449,1769811
1435047,1565116,1769442
1435201,1565623,1770019
1435201,1566742,1769890
1435499,1568289,1770236
1435667,1570000,1769246
1436181,1571756,1767771
1436434,1572489,1768232
1436872,1574143,1769105
1438099,1576364,1769563
1438644,1576957,1771414
1438770,1578059,1772774
1439480,1579560,1773988
1439711,1581213,1774404
1440003,1582783,1773900
1440373,1584964,1771998
1440772,1587105,1770167
1441286,1588814,1769361
1442004,1590645,1770837
1442491,1592417,1766194
1442832,1593630,1763729
1443197,1595536,1759685
1443666,1597257,1757569
1444034,1598949,1754419
1444047,1600927,1752155
1444220,1603000,1750062
1444220,1604459,1749777
1444776,1606173,1749421
1445296,1607735,1750711
1445859,1608948,1752057
1446034,1609246,1751468
1446691,1610205,1751971
1447967,1611120,1753227
1448282,1610871,1755449
1448546,1611051,1755807
1449093,1612318,1757839
1449597,1612296,1758813
1450154,1612024,1760821
1450292,1612441,1759823
1450811,1613432,1760882
1451038,1614357,1760762
1451880,1615033,1762143
1452351,1616053,1761340
1453002,1616911,1762369
1453316,1616923,1762437
1453925,1618132,1764613
1454308,1619032,1764761
1454240,1619599,1764852
1454240,1619250,1764721
1454679,1619268,1764690
1455098,1618970,1764751
1455517,1620107,1768480
1455998,1620903,1771022
1456307,1622640,1772117
1457258,1627731,1773841
1457600,1629398,1775017
1457709,1630880,1775466
1457467,1631079,1774416
1456671,1629217,1774395
1455444,1626274,1772961
1453788,1623075,1772585
1448991,1614707,1771328
1446110,1614011,1774116
1445104,1616904,1774227
1445378,1621378,1775986
1445444,1623167,1775061
1445558,1624254,1777738
1445685,1625258,1775908
1445736,1625934,1776475
1445535,1626625,1773256
1445355,1626957,1772538
1445745,1627322,1769387
1446120,1627619,1768486
1446222,1627357,1766332
1446587,1627536,1764782
1446483,1626847,1765463
1446520,1626807,1764482
1446640,1626868,1764428
1446975,1626009,1765090
1447184,1625410,1765585
1447212,1624967,1765571
1447045,1624157,1765618
1447110,1623891,1765311
1447057,1623674,1765076
1447272,1623354,1763701
1447236,1623156,1763882
1447236,1622556,1763498
1447210,1622863,1763480
1447532,1622448,1763290
1447803,1622290,1765176
1448182,1622249,1764345
1448442,1622100,1764473
1449418,1622835,1762218
1449357,1623687,1760194
1449814,1624361,1758354
1450035,1624699,1757187
1450479,1625578,1758704
1450960,1625955,1763645
1450997,1625951,1763645
1451551,1626399,1764924
1452023,1626202,1766720
1452492,1626015,1768118
1452903,1626054,1768255
1453085,1625461,1768805
1453442,1624935,1770439
1453502,1624811,1771475
1453885,1625174,1773282
1454067,1625516,1774176
1454260,1625451,1777448
1454260,1625176,1777468
1454325,1624408,1777667
1454723,1623808,1776447
1454839,1623367,1775612
1455202,1622426,1776342
1455481,1621849,1776174
1456007,1621627,1776640
1456286,1622181,1776623
1456556,1623311,1777684
1456873,1624146,1779529
1457203,1624754,1779962
1458330,1627180,1778029
1459149,1626905,1779185
1460254,1627380,1779080
1458727,1621876,1781318
1453815,1607942,1783114
1452110,1603333,1784735
1450266,1599192,1786979
1448834,1596423,1788765
1447010,1594282,1789593
1445914,1592821,1789448
1445147,1592452,1789670
1444685,1592105,1791096
1444096,1592398,1791654
1443753,1591826,1792031
1443429,1590010,1793947
1442957,1590609,1793499
1442741,1592878,1793306
1443149,1595039,1792408
1443432,1595366,1792596
1443633,1595098,1790186
1443854,1595640,1788533
1443689,1596189,1789358
1443713,1597127,1788352
1443869,1597708,1789526
1443589,1598196,1788615
1443577,1598889,1791251
1443695,1599357,1793253
1444073,1599590,1793222
1444106,1599896,1796392
1444207,1600335,1796365
1444222,1601838,1797972
1444661,1603553,1797297
1444996,1604701,1798418
1445775,1605981,1799894
1445998,1606907,1800815
1446435,1607049,1800924
1446566,1607570,1801385
1446982,1608021,1800668
1447369,1608575,1800690
1447714,1608961,1800752
1447714,1608953,1800442
1447871,1608997,1800367
1448216,1608900,1800332
1448468,1609002,1801871
1448990,1608460,1802606
1449138,1607989,1803798
1450051,1607413,1803831
1450204,1608136,1804818
1450239,1608720,1807792
1450652,1609341,1807969
1450890,1610362,1808776
1451036,1611261,1808381
1451497,1611903,1809153
1452162,1612745,1809112
1453105,1613634,1810943
1454136,1615912,1811693
1455057,1618010,1812417
1455489,1618840,1811894
1455752,1618740,1813412
1456009,1619078,1813832
1456459,1620307,1814378
1456352,1622564,1814946
1456780,1624416,1815010
1457019,1626333,1815403
1457515,1627885,1815726
1458024,1628844,1816972
1458416,1629370,1816874
1458676,1629135,1816553
1458523,1624431,1817410
1454234,1614258,1815876
1448509,1604043,1816374
1444779,1599718,1815881
1444192,1599887,1815246
1444003,1599414,1815458
1443354,1599958,1816418
1443271,1600481,1817570
1443126,1601482,1818006
1442792,1602166,1819201
1442744,1602408,1818570
1442740,1602478,1819075
1442631,1602292,1820357
1442524,1601778,1820264
1442515,1601054,1820683
1442279,1600302,1820392
1442040,1600306,1820390
1442260,1601270,1819557
1442330,1602877,1817921
1442716,1604467,1816147
1443022,1605788,1814889
1443332,1606225,1813586
1443483,1606183,1812952
1443432,1605847,1813507
1443457,1605390,1811733
1443441,1605227,1811789
1443441,1605019,1810572
1443599,1605152,1808578
1443423,1606022,1807541
1443642,1607319,1805627
1444014,1608044,1803390
1444243,1608466,1802154
1444639,1609881,1802478
1444938,1610147,1802851
1445424,1610568,1802914
1445696,1610792,1803848
1446037,1611748,1805201
1446447,1612193,1804281
1446260,1613042,1804115
1446968,1614295,1802943
1447636,1615479,1803470
1447912,1616491,1801528
1448553,1617092,1802429
1449018,1617828,1803028
1449191,1618669,1804124
1450406,1622773,1807228
1451504,1626871,1806382
1452212,1627988,1804913
1452460,1628835,1803226
1453037,1629616,1801653
1453085,1630786,1800338
1453190,1632242,1800721
1453574,1633416,1800927
1453921,1635051,1801013
1454365,1636874,1802727
1454954,1639069,1803895
1455479,1641559,1804991
1455868,1643513,1807249
1456303,1646112,1808260
1456869,1648567,1808523
1457675,1650491,1808244
1458333,1652305,1807921
1458880,1653589,1806396
1459619,1655062,1807074
1459901,1656458,1806067
1460657,1657735,1806043
1460985,1659691,1805613
1461063,1661557,1806615
1461063,1662163,1803669
1461887,1663424,1801919
1462663,1664353,1801698
1463248,1665602,1803171
1463818,1666583,1803054
1464412,1667008,1802826
1466134,1668184,1804747
1466449,1668703,1804114
1467046,1669546,1803717
1467601,1669838,1804479
1468284,1671034,1806003
1468595,1671779,1803585
1469176,1672752,1803944
1469713,1674004,1804562
1470216,1674306,1805025
1470586,1674109,1804992
1470654,1671996,1806681
1469946,1669019,1805913
1468907,1664681,1804600
1466644,1660278,1804470
1465515,1656002,1805238
1463408,1652506,1804897
1461051,1649429,1805222
1461051,1647001,1807233
1459240,1645409,1808261
1458227,1644332,1808337
1457391,1644237,1809208
1456335,1644462,1810018
1455465,1645529,1809197
1454963,1649020,1811185
1454819,1650426,1809126
1455024,1651424,1811229
1454982,1652457,1809618
1454931,1652460,1811225
1454623,1652019,1811005
1454443,1651967,1813558
1454509,1652085,1811226
1454659,1652786,1812856
1455140,1654073,1810879
1455477,1655296,1811448
1455678,1656373,1809344
1455892,1657234,1808238
1456196,1657806,1809176
1456460,1657931,1807906
1456362,1657866,1809219
1456345,1657534,1810157
1456345,1657219,1810284
1456457,1657459,1810870
1456718,1657957,1812075
1456918,1659222,1814792
1456838,1659896,1815859
1456949,1660846,1817784
1458107,1662028,1819898
1458394,1662481,1821148
1458801,1662450,1824121
1459305,1662930,1827606
1459837,1663176,1831369
1460085,1663504,1834495
1460419,1663751,1836224
1461154,1663562,1839135
1461837,1663327,1842120
1462393,1662599,1842416
1462657,1661973,1842396
1463037,1661030,1842080
1463176,1660816,1839390
1463262,1660677,1839839
1464596,1661872,1838699
1465271,1660424,1838181
1465853,1659622,1839317
1466302,1658539,1837437
1466446,1658457,1835966
1466296,1658006,1835273
1466546,1657671,1833888
1466823,1657492,1834933
1467112,1658193,1834055
1467404,1658161,1834050
1467586,1657787,1833059
1468657,1655540,1833941
1469472,1651772,1833406
1470144,1646792,1834571
1470761,1643429,1832404
1470855,1642214,1832006
1470597,1641305,1830101
1470093,1639630,1830162
1468708,1637002,1830715
1466908,1633415,1830724
1464828,1629955,1830944
1462904,1625821,1830604
1460858,1621802,1829212
1458790,1617915,1828649
1456923,1615053,1827706
1455406,1612500,1827846
1454172,1611397,1828291
1453300,1610893,1828120
1452815,1611499,1829071
1452389,1612768,1828136
1452139,1613982,1826854
1451890,1614902,1826383
1451665,1616076,1825777
1451855,1616512,1824174
1451252,1616740,1823076
1451252,1616148,1823288
1450816,1615819,1823800
1450807,1615716,1825009
1450671,1616328,1823176
1450347,1617341,1823213
1450398,1618476,1824022
1450372,1619322,1824623
1450960,1620471,1823635
1450927,1620934,1822741
1450961,1620300,1823665
1450996,1620276,1824095
1451113,1620433,1823523
1450895,1620321,1822899
1451081,1620341,1824005
1451057,1620929,1822931
1451468,1620683,1822082
1451977,1620038,1824047
1451780,1619109,1824892
1451979,1617629,1825451
1451997,1616365,1826121
1452171,1615722,1825914
1452501,1615147,1825580
1452678,1615122,1825718
1452651,1614689,1826551
1452651,1614467,1827359
1452934,1613852,1828830
1453488,1612862,1828453
1453369,1611515,1827848
1453975,1609673,1827514
1454073,1608476,1828214
1454644,1607344,1827199
1454777,1607473,1826448
1455059,1607085,1826981
1455250,1606933,1827276
1455499,1606141,1828776
1455468,1605386,1829439
1455785,1605412,1831069
1455936,1605893,1831865
1456491,1606807,1831819
1456705,1608199,1832555
1456936,1609713,1832250
1457187,1611024,1831244
1457506,1612161,1832798
1457576,1612408,1832527
1458203,1612038,1832285
1457976,1611508,1834050
1457976,1611511,1835056
1458008,1612457,1835663
1458375,1614346,1836292
1458736,1617000,1836659
1458930,1619548,1837226
1459376,1621942,1837418
1460676,1626181,1836970
1461250,1627436,1834386
1461826,1628019,1835166
1462124,1628856,1835794
1462367,1629610,1836222
1462769,1630260,1837329
1463113,1631547,1837286
1463670,1633184,1838322
1464274,1634234,1837771
1465098,1635133,1838581
1465468,1635625,1838867
1465562,1634614,1837984
1465242,1632243,1837924
1464478,1628692,1837185
1462652,1624549,1838048
1460857,1620106,1837806
1458590,1615672,1839526
1458590,1611580,1842586
1456483,1607055,1839878
1454655,1604689,1840446
1453263,1601938,1841507
1451834,1599863,1841860
1450628,1597918,1842499
1448639,1596715,1844343
1448442,1597527,1843020
1448135,1598014,1843559
1448192,1598851,1845032
1448073,1599086,1846172
1447554,1598112,1848594
1447398,1596783,1849382
1447370,1594877,1851048
1446928,1593427,1850954
1446838,1592202,1851424
1446615,1591813,1851481
1446522,1591687,1852263
1446370,1591792,1852833
1446646,1592876,1856611
1446666,1593643,1855719
1446591,1594622,1857604
1446591,1594839,1858653
1446527,1594942,1860533
1446388,1594679,1861118
1446521,1594550,1861038
1446777,1594675,1861515
1446672,1595136,1861223
1446654,1595918,1862454
1446556,1597204,1863781
1447195,1599396,1862688
1447136,1599759,1863964
1447756,1599528,1864427
1448074,1599564,1864236
1448224,1599285,1865144
1448369,1599558,1866132
1448643,1599281,1867049
1448646,1599423,1868098
1449415,1599362,1871507
1449910,1599510,1870746
1450128,1599718,1873494
1450261,1599668,1874085
1450498,1600104,1874067
1450619,1600244,1873135
1450894,1599867,1873144
1450894,1600060,1871135
1451048,1600167,1871890
1451568,1600219,1869598
1451812,1600499,1871107
1452147,1600698,1872364
1452064,1600653,1873192
1452971,1601580,1872769
1453403,1602673,1872576
1453653,1603859,1872681
1453788,1606820,1872679
1454220,1611001,1872188
1454576,1615835,1873076
1455114,1620667,1874561
1456669,1633547,1874480
1458564,1640368,1876556
1460216,1645086,1875741
1462025,1649821,1876241
1462560,1651047,1873869
1463260,1651877,1875008
1463617,1652000,1873605
1464231,1652824,1876179
1464707,1652947,1875592
1465251,1654171,1875959
1465641,1654987,1877189
1466341,1655998,1877882
1467044,1657066,1876738
1467454,1658489,1876985
1467660,1658228,1877342
1467911,1657201,1877257
1467873,1654504,1876018
1467303,1650942,1877052
1466223,1646124,1877877
1464637,1640892,1878609
1462433,1637107,1878835
1460326,1633828,1879553
1458428,1631086,1880451
1456553,1629495,1879356
1455024,1628480,1879021
1453569,1627509,1879397
1453569,1626757,1878965
1452631,1626327,1878991
1451883,1626303,1879565
1451562,1626253,1878425
1451217,1626952,1878370
1450964,1627784,1877299
1450592,1629136,1877455
1450397,1630143,1877555
1450132,1630857,1877392
1449859,1630567,1877850
1449669,1630068,1877497
1449544,1629590,1877711
1449426,1629073,1877540
1449215,1628924,1875981
1449279,1629264,1876216
1449323,1629800,1875585
1449358,1629846,1875179
1449732,1629287,1874710
1449914,1629091,1874286
1449832,1628052,1874528
1450005,1627180,1874763
1449786,1626093,1874261
1449869,1625604,1872680
1449370,1625843,1874651
1449503,1627210,1873275
1449601,1627813,1872543
1449783,1628607,1872781
1450124,1629485,1872141
1450012,1630214,1871284
1450209,1630949,1872494
1450376,1631846,1873139
1450589,1632759,1872532
1451247,1634101,1871452
1451288,1636020,1871338
1452205,1636524,1870689
1452151,1637661,1869505
1452720,1638287,1867637
1453011,1638705,1867078
1453596,1638662,1865295
1454041,1638550,1863328
1454449,1637827,1862692
1454810,1637450,1861572
1455196,1637048,1860986
1455296,1637359,1859922
1455953,1637132,1860301
1455685,1637353,1860402
1455685,1636706,1859801
1455906,1635418,1859958
1456371,1635299,1859565
1456655,1634458,1856949
1456884,1633322,1856803
1457040,1632723,1855144
1457101,1632532,1854577
1457814,1632394,1853366
1457828,1632944,1853281
1458189,1632939,1852537
1458149,1632417,1853279
1458338,1631459,1854591
1458263,1630989,1856722
1458781,1630769,1857174
1458793,1630821,1857023
1459456,1631170,1857215
1459495,1631535,1857147
1459623,1631593,1856739
1460013,1631913,1857168
1460449,1631875,1856565
1460419,1631807,1856138
1460227,1630430,1856087
1460227,1628221,1856705
1459335,1625113,1855200
1458368,1621867,1854067
1456772,1618264,1854072
1455107,1615162,1854083
1453140,1611897,1855508
1447940,1607276,1856329
1446699,1605739,1855949
1445788,1604345,1856419
1444710,1603757,1855203
1444337,1603247,1856269
1443892,1602664,1857738
1443516,1603099,1857393
1443300,1603399,1857744
1443340,1603796,1859225
1443327,1604096,1859452
1443398,1604126,1859355
1442968,1603541,1859122
1442807,1603064,1858508
1442948,1602706,1856225
1442789,1602503,1855274
1442436,1602655,1854455
1442436,1602717,1853836
1442654,1602186,1853183
1442711,1601999,1854371
1442973,1601115,1854404
1442930,1600122,1854228
1443086,1598700,1853211
1442779,1598153,1854281
1442500,1598458,1853368
1442487,1597960,1853254
1442413,1597992,1853401
1442423,1597900,1852229
1442536,1597949,1852598
1442400,1597819,1852433
1442158,1599151,1852564
1442420,1600440,1850798
1442953,1602310,1851592
1443361,1603695,1847636
1443749,1604691,1845139
1443859,1605114,1846415
1444207,1605726,1844460
1444685,1605963,1845143
1444762,1606462,1844551
1444568,1606822,1846200
1444568,1607290,1845379
1445166,1607827,1846590
1445514,1608363,1845936
1445809,1609341,1846185
1446064,1609464,1845953
1446435,1609520,1846988
1447269,1609235,1847632
1447495,1609005,1847738
1447594,1608893,1846337
1447930,1608983,1847612
1448019,1608867,1848313
1448217,1609583,1847357
1448310,1609545,1847399
1448547,1609694,1846102
1448917,1609161,1844560
1449239,1608824,1843883
1449311,1608604,1841211
1449733,1608540,1837618
1449924,1608757,1836256
1449763,1609722,1836254
1450312,1610817,1835887
1450293,1611659,1836080
1450392,1612338,1835076
1450392,1613237,1836181
1450727,1615006,1836078
1450955,1616504,1834945
1451509,1616862,1833921
1451299,1615836,1832904
1450907,1613560,1832679
1447375,1606805,1832483
1445534,1603111,1831288
1440261,1593953,1831584
1437748,1589221,1832326
1436568,1587242,1832681
1436386,1586871,1833749
1435964,1585029,1833966
1435263,1583443,1836062
1435495,1583663,1835447
1435869,1583479,1837163
1435713,1583231,1836877
1436110,1581139,1834205
1435874,1579373,1833814
1435750,1577691,1832570
1435812,1576629,1832320
1435868,1575597,1831406
1435678,1574963,1832302
1435731,1574466,1832533
1435452,1573870,1833580
1436095,1573443,1832816
1435957,1572848,1835280
1435946,1572029,1835198
1436520,1574243,1835911
1437204,1579947,1834731
1437821,1581545,1835187
1438065,1582003,1835793
1438279,1582864,1835444
1438842,1582961,1836787
1438938,1583911,1836127
1438869,1584408,1835212
1439338,1585568,1835713
1439785,1586855,1833699
1439839,1588314,1833752
1440342,1589320,1836228
1440640,1589239,1836307
1441107,1588819,1838166
1441357,1588602,1838687
1441640,1588325,1839842
1441774,1588553,1839026
1442454,1589023,1838083
1442620,1589538,1836514
1442539,1589807,1836075
1443689,1590589,1835504
1444313,1589186,1836937
1444616,1590817,1837188
1444519,1591933,1839778
1444830,1593714,1838702
1445484,1594816,1839345
1445522,1596017,1839098
1445558,1596392,1838704
1445954,1596950,1838330
1446378,1597153,1839185
1446573,1597932,1839249
1446994,1598361,1840647
1447248,1598548,1840115
1447798,1598509,1840044
1448624,1600533,1839444
1447873,1598351,1838364
1443576,1585785,1836575
1438573,1570913,1837180
1437001,1567732,1836121
1436161,1564475,1834764
1435375,1562478,1836560
1434715,1560773,1836614
1434279,1560164,1838857
1434089,1559184,1837619
1433898,1558313,1838902
1434041,1556850,1839471
1433837,1555861,1842912
1433631,1554202,1843886
1433194,1552327,1846509
1432969,1550991,1845599
1432851,1549586,1847586
1432945,1547737,1847610
1433078,1545939,1848401
1432851,1543746,1849302
1433139,1542075,1848948
1433283,1540433,1851080
1433451,1539793,1851156
1433447,1540471,1852044
1433687,1542445,1851196
1433687,1545522,1851586
1433603,1549288,1852279
1433977,1553144,1852216
1434318,1556336,1853135
1434702,1559095,1854252
1434893,1560673,1855336
1435247,1562021,1856711
1436116,1565865,1857313
1436405,1567802,1858677
1436917,1569705,1859733
1437366,1571049,1859792
1437837,1571196,1858717
1438090,1570214,1859759
1438344,1568818,1860300
1438931,1567469,1861495
1439587,1566445,1861564
1439967,1566407,1862483
1440120,1566900,1861810
1440307,1568310,1862566
1440896,1570461,1865170
1441373,1573003,1865170
1441532,1575291,1866037
1441984,1577607,1867186
1441984,1578724,1867539
1442590,1579701,1867791
1442866,1580507,1868283
1443314,1581814,1867828
1443644,1583659,1867276
1444063,1585962,1867094
1445132,1592076,1867757
1445669,1594803,1868852
1446116,1597023,1869658
1446522,1598355,1870247
1446841,1599422,1871674
1447304,1599785,1870421
1447717,1600134,1871160
1448421,1600073,1871815
1449001,1599223,1871450
1449509,1598846,1871179
1449865,1598052,1871547
1450196,1597372,1872034
1450229,1596471,1872514
1450467,1595882,1874524
1450858,1595730,1874711
1450894,1595841,1874480
1450894,1595368,1874548
1451087,1595360,1874718
1451408,1595499,1874500
1451870,1596231,1873682
1452827,1596493,1874013
1453001,1597362,1873809
1453208,1598098,1874521
1453484,1599034,1875328
1453736,1599252,1875922
1454082,1599279,1875704
1454442,1599672,1874833
1454621,1600244,1875183
1454955,1601155,1874298
1455216,1602615,1873217
1455524,1604445,1873989
1455920,1605814,1871981
1457068,1607077,1871844
1458320,1606080,1870203
1458302,1605167,1869563
1456234,1596739,1867702
1452924,1593287,1867573
1450896,1589901,1867763
1448882,1586127,1866504
1447220,1583123,1866221
1446065,1580919,1864509
1445181,1579681,1865059
1444409,1579592,1865176
1443635,1579790,1865347
1443543,1580511,1865675
1443313,1581938,1865789
1443302,1582866,1865317
1443602,1583627,1865180
1443644,1583762,1864157
1443913,1583499,1864857
1443883,1582895,1864265
1443710,1582134,1864032
1443593,1581632,1862727
1443417,1581767,1862815
1443082,1581529,1863179
1443120,1581859,1863018
1443120,1582245,1862417
1443316,1582332,1862945
1443502,1582518,1863207
1443542,1583027,1863024
1443780,1583577,1863119
1443905,1584392,1861545
1444174,1586136,1862156
1444517,1587333,1861955
1444608,1587591,1861508
1444873,1587254,1861058
1444976,1587069,1861341
1445003,1585936,1860589
1445135,1586039,1860466
1445397,1586694,1861548
1445795,1588215,1862346
1446217,1589652,1862770
1446324,1591422,1862458
1446851,1592581,1862371
1447224,1593756,1861913
1447499,1594731,1862870
1447834,1595677,1864296
1448112,1596282,1862820
1448112,1597516,1863620
1448400,1598768,1862372
1448891,1600712,1862229
1449220,1602387,1861177
1449750,1603307,1860276
1450307,1603628,1860674
1451514,1603265,1860839
1451750,1602038,1861182
1451787,1601859,1861848
1452392,1601470,1863003
1452525,1602749,1862221
1452903,1603575,1862483
1453146,1605046,1862096
1453585,1605939,1861793
1453945,1606153,1862205
1454522,1605086,1862699
1454855,1604380,1862062
1455017,1603197,1862047
1455164,1602435,1861916
1455477,1602137,1862226
1455410,1602638,1861614
1455834,1603582,1861711
1455938,1605013,1862195
1456292,1605630,1864267
1456292,1605660,1864680
1456544,1605782,1862578
1457112,1604957,1864038
1457099,1603786,1862583
1457564,1603119,1863335
1457870,1603193,1861263
1458793,1603433,1860144
1459265,1603347,1858645
1459536,1604328,1857773
1459714,1604098,1856983
1460035,1603852,1856051
1460071,1603284,1855421
1460535,1602947,1852948
1460703,1602524,1852972
1461312,1602454,1852707
1461872,1602744,1850261
1461883,1602403,1849121
1461601,1600857,1848936
1460976,1599433,1853059
1460021,1596735,1850032
1458515,1593712,1848871
1458515,1588899,1846496
1456692,1583848,1850587
1454965,1579894,1847331
1453153,1576941,1845056
1451559,1574568,1845348
1450027,1573364,1846283
1448956,1572417,1846623
1448131,1572098,1846264
1447005,1571110,1845944
1446931,1570280,1846033
1446845,1570389,1847503
1446812,1569526,1847159
1446498,1569567,1848778
1446592,1570087,1848371
1446700,1571338,1848387
1446822,1572130,1846687
1447120,1573270,1848377
1447347,1573916,1846017
1447346,1575190,1845473
1447493,1576354,1844783
1447876,1578032,1845651
1448150,1579369,1845335
1448076,1580607,1846388
1448076,1581393,1845749
1448359,1581909,1847397
1448315,1582708,1846452
1448782,1582074,1847206
1448850,1581637,1846970
1449019,1581335,1847013
1449025,1582123,1847588
1449410,1582600,1848374
1449356,1583326,1848793
1449805,1583084,1848204
1449815,1583491,1848570
1450116,1582892,1848381
1450205,1583437,1848817
1450634,1584652,1847499
1451030,1586418,1847312
1451415,1588788,1847119
1452171,1591160,1846972
1452841,1593262,1846350
1453089,1595243,1847263
1453678,1597001,1846985
1454287,1597704,1848604
1454383,1597908,1846987
1455333,1598636,1847969
1456084,1599777,1846379
1456757,1600258,1848451
1456699,1600865,1848747
1457062,1601358,1851440
1457198,1601242,1853652
1457220,1600727,1852819
1457936,1600907,1851492
1458111,1601116,1851688
1458508,1602148,1850617
1458845,1603042,1851391
1459155,1603125,1851751
1459248,1604028,1852163
1459700,1604932,1852120
1460285,1605337,1853064
1460667,1605658,1852026
1460968,1605680,1853057
1461461,1605928,1854531
1461750,1606390,1853431
1462118,1607084,1853574
1462328,1607945,1853656
1462801,1608722,1854430
1462801,1609199,1853809
1462910,1609269,1854086
1463353,1608966,1853356
1463720,1608705,1854908
1463989,1608957,1854071
1464045,1608955,1851207
1465402,1611734,1850430
1465629,1613806,1848895
1466309,1614917,1848212
1466776,1615625,1846856
1467127,1616272,1846765
1467489,1616207,1847463
1467623,1615389,1845794
1467673,1614893,1845251
1468096,1614040,1844965
1468050,1612243,1843856
1467454,1609172,1844314
1466280,1605474,1843716
1464762,1601613,1842456
1462770,1597837,1841608
1460963,1594154,1842651
1458940,1590596,1844554
1457223,1587370,1846461
1457223,1584655,1846545
1455632,1583033,1847076
1454397,1582419,1845813
1453715,1582919,1845475
1453173,1583465,1844884
1452652,1584083,1843771
1452499,1585628,1844228
1452478,1585686,1843571
1452619,1585492,1844986
1452535,1585506,1845406
1452492,1585103,1846448
1452312,1585162,1846526
1452262,1584975,1847128
1452219,1584979,1847698
1452621,1585342,1849127
1452732,1585489,1847977
1453079,1585650,1848833
1453085,1585160,1849256
1452977,1585030,1849365
1453230,1584908,1851309
1453277,1584876,1851564
1453145,1584463,1852468
1452922,1583751,1852625
1452922,1582763,1853657
1452929,1581777,1853760
1452906,1581450,1855178
1452706,1581424,1856422
1453031,1581789,1857743
1452970,1582152,1860049
1453374,1584257,1861249
1453810,1585434,1861577
1454124,1586278,1863140
1454308,1586918,1863300
1454471,1586486,1863084
1454793,1586140,1863519
1455173,1586020,1864127
1455415,1586353,1864848
1455877,1586880,1865482
1456267,1587622,1865496
1456793,1588605,1866579
1456896,1589222,1867069
1457293,1589726,1867303
1457622,1589735,1867193
1457949,1590190,1868329
1457878,1589775,1868839
1457878,1589776,1868350
1458348,1589911,1868305
1458699,1590374,1868898
1458966,1590660,1870137
1459078,1591119,1869907
1459425,1591597,1869874
1460497,1593006,1870656
1460573,1593741,1870570
1460862,1594575,1871046
1461312,1596355,1871682
1461609,1598002,1873309
1461859,1600009,1874721
1462294,1602297,1875655
1462665,1604281,1877234
1463221,1605521,1878301
1463928,1606206,1877879
1464306,1607009,1879389
1464869,1607417,1879676
1464923,1607496,1879995
1465423,1608578,1879733
1465947,1609618,1880643
1466119,1611426,1882250
1466119,1612987,1882549
1466110,1614729,1883181
1466815,1615876,1884507
1467408,1617150,1886226
1467781,1617538,1886825
1468432,1618321,1886466
1468744,1619308,1888239
1470059,1621914,1888082
1470514,1623313,1888694
1470747,1624773,1888850
1471456,1626188,1889058
1471722,1627299,1889396
1472054,1628710,1892041
1472672,1630396,1891133
1473190,1631689,1891347
1474059,1633037,1889644
1474520,1634277,1889147
1474651,1635123,1886271
1474833,1635536,1887655
1474863,1634564,1885591
1474032,1632410,1884335
1472975,1628591,1884092
1471285,1626030,1884461
1471285,1622786,1883031
1469819,1620568,1882998
1468140,1618589,1882979
1466363,1617192,1882836
1464897,1615910,1882642
1463699,1615119,1886445
1461385,1614427,1886935
1461122,1614474,1886824
1460765,1614869,1886892
1460937,1616031,1887064
1460941,1617419,1887194
1461489,1618475,1886783
1460949,1619644,1886681
1461086,1620415,1887135
1461100,1620618,1886779
1461444,1620194,1887567
1461512,1619471,1886287
1461353,1618431,1890011
1461228,1618738,1888596
1461181,1618925,1888702
1461173,1620045,1887577
1461329,1620793,1888984
1461329,1621135,1888850
1461224,1621246,1889828
1461340,1621805,1890844
1461649,1621971,1890052
1461843,1621947,1889691
1461600,1621864,1890954
1461702,1622819,1890937
1461599,1623568,1892617
1462029,1625180,1893404
1462212,1625903,1893048
1462386,1626575,1893020
1462636,1626690,1892581
1462559,1626658,1893369
1463099,1627793,1893840
1463570,1628714,1894239
1464051,1629822,1892168
1464641,1631108,1893204
1464897,1632572,1891440
1465098,1633975,1891549
1465736,1634977,1891400
1466398,1636672,1893495
1466759,1637650,1891166
1466934,1638236,1892286
1466934,1637988,1890976
1467302,1637837,1890699
1467656,1638243,1889539
1468189,1639207,1890769
1468525,1640309,1889667
1468897,1641384,1888283
1470161,1642940,1888212
1470503,1643605,1888424
1471145,1643221,1888876
1471426,1642422,1888051
1472342,1638100,1889446
1473097,1637590,1889743
1474052,1638018,1889519
1474926,1636929,1890041
1475774,1636308,1889826
1475995,1636930,1889720
1476436,1636454,1890776
1476561,1636304,1890299
1477016,1636210,1888675
1476905,1636439,1888666
1477098,1636147,1888683
1477448,1635685,1888034
1477764,1635642,1889078
1478038,1636042,1888978
1478332,1636522,1888832
1478522,1636428,1886922
1478283,1635550,1889083
1477754,1633796,1887240
1477074,1631222,1886482
1475652,1627753,1884684
1474308,1623173,1881319
1472462,1618263,1879385
1470692,1613112,1875017
1468896,1608297,1872137
1467383,1604405,1870061
1466055,1601288,1869057
1464547,1598604,1867511
1464547,1596309,1864425
1463668,1594595,1863366
1463047,1593839,1863656
1462796,1593292,1860554
1462453,1592843,1859981
1462043,1592686,1858377
1461355,1592886,1859308
1461486,1592857,1860015
1461740,1593139,1860652
1461543,1593944,1860675
1461762,1595010,1861237
1461581,1595965,1862863
1461699,1597614,1864243
1462033,1599068,1866676
1462555,1599329,1867384
1462622,1599739,1869881
1462974,1599662,1870827
1462741,1598830,1871938
1462732,1597686,1871981
1462659,1596570,1871563
1462766,1596557,1871380
1462531,1596574,1869282
1462531,1596983,1869443
1462349,1597573,1869505
1462508,1598429,1868310
1462585,1599910,1868297
1462810,1601235,1867683
1462915,1601881,1867741
1463371,1602499,1866374
1463616,1602705,1867164
1464679,1601964,1865963
1464829,1602478,1865449
1465091,1603548,1865925
1465565,1605552,1865926
1465849,1607245,1866591
1466278,1609393,1864898
1467040,1611278,1862946
1467588,1612795,1861742
1468181,1613131,1861296
1468695,1613487,1860260
1469054,1613516,1858965
1469082,1613687,1857458
1469637,1614635,1857140
1469892,1615974,1856561
1470150,1616942,1855212
1470150,1618063,1855619
1470622,1618963,1855726
1470851,1619222,1854185
1471492,1619889,1854025
1471871,1620031,1854125
1472211,1620553,1853146
1473159,1623465,1853723
1473696,1625393,1854032
1474105,1626544,1853472
1474645,1627230,1852255
1474990,1627175,1852678
1475403,1627306,1852821
1475557,1626245,1853175
1476183,1625181,1853345
1476654,1624666,1854942
1477119,1624735,1854527
1477458,1625295,1855624
1477865,1625993,1857214
1478107,1626965,1857295
1478641,1628078,1857922
1478727,1628791,1857921
1479057,1629513,1858142
1479242,1629357,1858539
1479242,1629746,1859976
1479872,1629983,1861515
1480328,1630829,1861504
1480619,1630642,1861898
1480791,1629275,1861525
1480432,1626999,1861098
1477495,1620435,1860235
1475960,1616519,1860890
1473983,1612931,1860018
1472309,1609733,1859626
1470965,1606610,1859417
1469476,1604634,1858389
1468458,1603728,1859644
1467855,1603305,1858650
1467676,1603321,1858950
1467398,1603336,1859209
1467084,1603146,1858047
1466881,1603133,1855935
1466780,1603128,1854660
1466789,1602632,1853580
1466512,1602707,1852398
1466043,1602998,1850814
1465833,1602942,1850212
1465980,1602346,1849622
1466036,1602306,1850326
1466128,1602823,1849875
1465993,1603077,1849840
1466267,1603444,1850113
1466192,1603112,1850428
1466244,1602743,1851898
1466198,1602295,1852619
1466368,1601909,1854065
1466435,1601893,1853289
1466383,1601376,1854183
1466119,1600769,1853819
1466173,1600639,1856922
1466154,1600059,1858188
1466286,1599686,1858197
1466471,1598501,1859017
1466409,1597453,1858541
1466483,1595938,1859647
1466257,1595126,1858945
1466224,1595097,1859027
1466362,1595341,1858812
1466268,1595901,1860369
1466027,1597060,1860652
1466027,1597740,1861032
1466605,1598822,1862885
1467024,1599628,1862537
1467425,1600136,1862227
1467577,1600371,1864870
1467960,1601000,1864807
1468978,1602597,1866707
1469377,1603252,1867447
1469583,1603918,1870310
1470022,1604401,1871668
1470291,1604783,1872294
1470537,1605029,1871776
1470859,1605652,1871378
1471231,1606024,1869524
1471735,1606489,1870670
1472211,1606910,1870320
1472309,1607693,1871238
1472840,1608082,1871688
1472947,1608778,1872501
1473192,1609670,1872783
1473487,1610554,1872393
1473464,1611546,1871395
1473729,1612489,1870005
1473729,1612735,1870861
1474074,1613338,1871293
1474465,1614346,1871301
1474757,1615137,1870771
1475308,1616069,1871540
1475568,1617327,1873385
1476877,1619207,1874444
1476913,1619812,1872487
1477425,1620693,1872075
1477911,1621387,1871181
1478287,1621725,1873027
1478597,1621652,1872826
1479143,1623193,1874128
1479608,1624283,1872186
1480286,1626279,1872827
1480789,1627117,1872453
1481242,1628230,1870869
1481477,1628929,1870676
1481783,1629516,1871154
1482220,1629993,1871232
1482465,1630199,1871782
1482675,1630571,1871469
1483155,1631281,1871474
1483155,1631050,1870948
1483781,1631861,1872021
1484220,1632305,1872472
1484746,1631414,1872490
1484583,1628332,1873678
1484331,1624764,1875303
1480848,1614670,1876011
1478707,1609883,1875483
1476854,1605759,1877836
1474866,1601976,1876783
1472776,1598922,1879280
1471464,1596623,1879141
1470265,1595323,1876968
1469485,1594005,1877472
1469065,1593706,1875984
1468732,1593333,1876922
1468144,1593637,1876688
1468023,1594377,1877429
1467867,1595486,1877138
1468053,1596742,1880126
1467400,1597623,1878389
1467400,1597926,1879820
1466811,1597921,1878721
1466811,1597636,1878162
1466884,1596886,1877312
1466843,1596166,1875974
1466840,1595387,1874455
1466516,1595472,1873646
1466478,1596012,1874012
1466753,1597601,1874489
1466804,1598388,1873468
1466904,1599681,1874795
1466937,1600070,1874207
1466981,1599597,1873988
1466930,1599227,1874248
1466774,1598098,1872174
1466313,1597143,1874302
1466639,1596880,1874029
1467077,1597655,1874394
1467103,1599001,1875670
1467182,1600832,1877547
1467716,1602706,1876325
1467944,1604507,1877313
1467829,1605559,1877134
1467829,1606413,1879232
1468185,1606666,1879340
1468390,1606653,1879452
1468833,1606614,1880596
1469143,1606865,1882695
1469422,1607911,1884114
1470354,1611409,1884862
1470807,1613551,1884762
1471285,1615093,1884864
1471922,1616160,1884462
1472243,1617095,1886490
1472669,1617465,1888404
1473129,1617651,1891936
1473468,1618357,1892798
1473783,1619325,1891698
1474042,1620528,1893917
1474771,1621424,1893886
1475110,1622194,1894847
1475488,1622618,1894911
1475780,1622770,1895859
1476304,1623050,1895393
1476508,1623219,1894936
1476461,1623173,1895729
1476461,1623300,1896515
1476841,1623231,1897778
1476909,1624054,1898936
1477488,1624524,1896975
1477731,1625102,1897437
1478208,1625691,1899605
1479393,1626558,1897119
1479793,1626310,1895358
1480109,1625374,1895701
1480364,1624375,1895056
1480624,1624002,1897469
1480630,1623240,1898871
1480961,1623324,1899974
1481555,1623651,1902730
1482041,1624017,1903425
1482558,1624295,1907360
1482813,1624512,1910944
1483276,1624994,1914621
1483295,1624901,1917093
1483622,1624475,1919605
1483541,1623131,1920718
1483202,1620440,1922193
1483202,1617355,1922236
1482379,1613076,1924607
1481239,1608772,1924013
1479630,1604961,1924385
1477890,1601006,1923669
1475965,1597235,1924646
1471375,1592107,1925138
1470200,1590737,1925848
1469473,1589216,1925267
1468767,1588867,1925696
1468482,1588951,1924738
1468159,1589620,1926330
1467754,1590491,1925547
1467858,1591625,1926622
1468170,1592616,1926215
1468104,1592503,1925830
1468304,1591689,1925658
1468152,1590361,1924613
1468126,1589755,1922945
1467846,1589662,1923047
1468111,1590339,1923311
1467927,1591711,1924133
1467915,1592863,1924665
1467915,1593132,1923390
1467881,1592966,1922824
1467862,1592452,1921767
1467959,1592526,1920036
1468077,1591962,1919151
1467978,1592392,1917358
1468047,1595808,1914711
1468051,1597955,1913908
1468273,1599583,1912741
1468528,1600378,1911154
1468631,1600605,1909701
1468825,1599834,1909072
1468933,1599252,1908434
1469154,1598665,1907576
1469639,1598870,1907086
1469955,1599804,1905092
1470583,1601436,1905941
1470833,1602863,1904161
1471013,1605050,1903119
1471731,1606659,1903823
1472001,1608435,1903607
1472325,1609560,1903113
1472656,1609901,1903037
1472656,1610461,1903147
1473213,1610925,1902846
1473721,1611499,1902437
1474051,1611717,1902013
1474416,1612087,1902650
1475333,1612908,1905512
1475617,1613465,1906308
1476049,1613494,1905783
1476424,1613359,1905330
1476606,1613536,1908177
1477000,1613311,1908447
1476953,1612798,1908360
1477243,1612744,1906639
1477536,1612279,1907336
1478245,1611702,1906069
1478167,1610689,1906542
1478653,1609715,1907213
1478563,1609296,1907420
1478700,1608913,1906662
1478831,1608598,1906035
1479008,1608126,1905841
1478874,1607732,1903970
1478874,1606905,1902693
1479198,1606213,1902255
1479470,1605617,1899945
1479501,1605272,1899892
1479834,1605510,1898606
1480013,1605953,1897199
1480908,1607366,1896563
1480889,1608449,1899589
1481359,1608271,1894546
1481660,1608090,1894051
1481926,1606961,1892813
1482113,1605714,1891777
1482097,1605198,1889215
1482396,1605168,1888566
1482620,1605032,1888895
1482605,1603814,1887796
1481704,1601549,1887578
1480992,1597710,1888270
1478962,1593203,1886335
1476906,1587739,1885976
1474874,1582217,1884719
1472678,1576756,1884831
1472678,1571524,1885419
1468995,1567706,1883887
1468995,1565256,1883891
1467858,1564315,1883544
1466637,1563639,1883700
1466131,1563759,1884817
1465145,1565221,1886693
1465035,1565523,1885440
1464743,1565302,1884384
1464765,1565191,1884009
1464348,1565136,1885077
1464058,1564975,1885247
1463812,1565124,1885781
1463793,1565524,1884874
1463713,1566288,1884464
1464169,1567308,1883754
1464243,1568643,1882549
1464219,1569172,1882534
1464554,1569794,1883790
1464649,1569718,1883534
1464982,1569940,1884540
1465155,1570384,1884492
1465155,1571020,1882984
1464859,1572217,1881571
1464946,1573613,1880330
1465213,1575009,1878352
1465353,1575761,1875027
1465339,1576021,1874343
1465479,1575528,1873327
1465570,1573510,1873923
1465787,1573619,1873728
1466368,1574503,1871551
1466518,1576125,1871353
1466916,1577635,1872212
1466946,1579280,1871147
1467215,1580971,1871784
1467760,1581763,1872880
1468471,1582054,1871764
1468923,1581699,1874009
1469308,1580882,1871940
1469247,1580596,1872937
1469533,1581306,1871952
1469998,1582039,1872116
1470098,1583788,1871093
1470309,1584771,1872260
1470309,1585813,1871975
1470672,1586019,1871047
1471174,1585285,1870853
1471416,1584673,1869516
1471728,1583446,1869667
1471638,1582485,1870188
1472280,1583558,1869949
1472609,1584837,1870614
1473012,1585017,1870991
1473328,1585305,1870309
1474275,1585048,1870395
1474796,1585932,1871052
1476058,1591212,1869864
1477276,1594180,1868569
1478320,1594569,1869123
1478612,1596444,1868456
1479009,1598133,1867979
1479466,1599977,1867459
1479803,1601728,1869167
1479765,1603306,1868933
1480366,1604304,1868573
1480983,1604627,1866887
1481446,1605224,1868222
1481697,1605176,1867305
1482211,1605595,1868121
1482355,1606021,1867808
1482395,1607449,1866751
1483186,1608688,1865785
1483869,1610066,1866593
1484360,1611424,1865911
1484659,1612146,1866833
1484883,1611947,1865432
1484636,1610354,1866087
1484059,1606856,1865865
1482778,1603384,1866931
1481186,1599834,1867658
1481186,1596268,1866657
1479375,1593114,1867222
1477561,1590719,1866456
1475561,1588112,1867173
1473981,1585868,1867379
1472756,1584112,1868226
1470146,1582189,1869209
1469664,1582863,1868936
1469463,1584658,1868555
1469506,1587258,1869661
1469581,1589708,1869482
1469525,1592047,1870511
1469605,1593442,1870918
1469868,1594562,1872333
1469738,1595015,1872458
1470096,1595180,1872332
1469864,1595074,1872219
1469922,1595154,1873941
1469862,1596164,1872982
1470236,1598335,1873850
1470448,1599974,1873889
1470564,1602252,1875101
1470900,1602989,1874901
1470900,1603268,1875047
1471226,1602963,1874429
1471372,1602936,1874614
1471555,1602839,1875344
1471742,1602479,1874538
1471636,1603518,1874111
1472481,1606540,1874554
1472611,1607776,1874453
1472951,1608447,1873797
1473140,1608763,1874142
1473354,1608401,1874190
1473519,1607668,1874224
1473915,1606889,1874366
1474141,1606152,1873974
1474587,1606340,1874385
1475162,1607821,1876035
1475290,1609212,1875945
1475749,1611383,1876098
1476064,1613456,1876475
1476836,1615246,1876667
1477011,1616146,1876675
1477450,1617583,1875983
1477612,1618883,1872262
1477612,1620317,1871208
1478573,1621525,1868227
1479162,1621841,1867848
1479558,1622345,1866694
1479910,1622059,1866296
1481181,1619800,1864946
1481116,1618756,1864653
1481436,1617340,1863771
1481727,1616303,1863524
1481866,1615502,1863674
1481878,1615181,1864117
1482203,1615436,1865590
1482428,1615522,1864916
1482817,1615393,1864323
1483269,1614995,1864594
1483412,1613952,1863641
1483590,1612508,1862979
1483694,1611624,1862517
1483856,1610762,1862862
1483947,1609991,1864757
1483825,1609738,1862386
1483825,1609786,1863448
1483964,1609843,1862878
1484214,1609994,1862074
1484642,1609764,1862689
1484860,1608994,1864107
1485081,1608630,1864414
1485541,1608397,1863646
1485737,1608557,1864021
1485946,1608476,1864785
1486217,1608578,1864641
1486371,1608461,1865138
1486591,1608601,1866029
1486515,1608306,1865929
1486357,1607368,1867324
1485827,1604504,1868045
1485018,1600827,1868899
1483528,1597417,1869141
1481546,1593565,1870556
1479607,1590119,1870536
1477990,1586980,1869478
1476195,1584386,1870567
1474610,1582091,1870362
1474610,1580023,1870583
1473539,1577994,1871995
1472589,1576756,1872945
1471738,1575807,1873441
1471276,1574904,1872456
1470804,1574320,1872655
1470230,1574875,1873253
1470263,1575392,1873933
1470199,1575911,1873594
1470084,1576389,1874922
1470124,1576532,1874385
1469922,1576490,1875542
1469793,1576583,1875176
1469940,1576532,1876406
1470380,1576757,1876200
1470567,1575767,1877415
1470667,1574947,1876650
1470698,1573747,1877939
1470463,1573001,1877668
1470247,1572352,1880059
1470109,1572991,1879244
1469847,1574460,1879739
1469847,1575779,1880521
1470119,1577079,1881118
1470226,1577968,1881118
1470416,1578634,1880952
1470520,1578532,1882526
1470677,1578085,1883336
1471144,1579094,1884144
1471261,1579669,1884651
1471491,1580657,1885585
1472052,1581429,1886341
1472409,1581953,1887873
1472702,1582565,1886777
1473067,1582876,1888939
1473369,1583179,1890073
1473844,1583087,1891674
1474393,1583304,1891417
1474720,1583385,1890653
1475014,1583204,1892276
1475323,1582769,1896032
1475291,1583089,1892863
1475761,1583617,1893744
1475912,1585024,1893405
1475912,1585862,1896164
1476042,1586941,1896910
1476419,1587508,1895685
1476734,1588212,1896791
1477154,1588442,1896379
1477436,1588561,1897880
1477637,1588219,1900679
1478897,1587723,1900150
1478968,1587934,1898721
1479138,1587826,1900579
1480075,1588550,1899445
1480880,1589859,1900402
1481920,1589489,1898982
1482941,1589929,1899826
1483626,1592173,1898220
1484263,1593036,1897385
1484797,1592938,1897401
1485192,1592975,1898299
1485262,1593306,1897713
1485391,1593512,1898280
1485704,1593590,1896177
1486203,1594601,1896178
1486475,1595284,1896481
1486492,1594314,1897121
1485984,1592622,1897042
1485122,1589095,1897723
1483752,1584517,1899461
1481988,1579351,1898006
1479978,1574894,1897548
1478199,1570542,1895940
1476285,1567272,1895129
1474893,1564821,1893395
1473628,1563809,1894720
1472991,1563463,1894565
1472406,1563588,1895285
1471578,1563113,1894631
1471578,1563711,1896332
1471306,1563254,1895976
1471126,1562773,1895956
1470946,1562733,1894809
1471022,1562239,1895342
1470739,1562285,1894856
1470394,1563293,1895012
1470356,1563989,1893691
1470443,1564528,1895549
1470252,1565347,1895279
1470558,1565738,1895577
1470568,1565823,1896312
1470522,1566313,1895083
1470894,1565611,1896557
1471414,1565844,1897582
1471647,1565950,1897162
1471611,1566362,1896082
1471744,1565231,1895379
1471686,1565089,1897017
1471874,1564932,1897575
1471787,1565496,1897954
1471249,1565373,1898141
1471249,1565829,1897967
1471740,1566346,1897967
1471774,1567674,1897043
1471913,1568630,1898100
1472171,1569823,1898515
1472509,1570901,1898538
1473598,1572506,1898280
1473954,1572915,1899829
1474166,1572955,1900059
1474598,1573381,1901961
1474808,1573887,1902968
1475997,1576066,1902292
1477142,1578612,1904157
1478350,1579712,1902248
1479301,1581407,1903825
1479941,1584703,1903062
1480482,1585848,1903050
1481109,1586437,1903435
1481616,1586689,1902372
1481912,1586840,1902270
1482130,1587258,1901929
1482369,1588458,1901462
1482805,1590016,1903556
1483174,1591683,1902868
1483516,1593367,1901613
1483950,1595231,1901702
1484614,1596373,1902745
1485184,1597149,1903428
1485776,1597775,1902120
1486111,1598237,1901477
1486616,1598841,1903352
1487084,1599910,1902669
1487497,1601463,1904035
1488850,1602596,1902853
1489366,1603326,1902650
1489701,1603088,1903358
1489943,1603141,1902711
1490366,1603146,1902407
1490463,1603375,1901169
1490546,1603609,1901269
1491307,1603673,1900143
1491576,1603736,1899694
1491717,1604575,1897477
1492234,1604551,1896134
1492370,1604753,1895154
1492680,1605609,1893510
1493034,1606018,1891819
1493037,1605457,1890730
1492622,1603029,1889610
1491716,1599573,1890072
1490171,1595217,1888970
1488477,1590152,1888697
1486161,1585244,1888604
1483865,1580603,1888869
1481809,1577113,1887973
1481809,1574422,1888128
1480218,1572732,1885533
1478804,1572134,1884266
1477816,1573432,1882824
1477080,1575314,1883795
1476792,1577861,1883916
1476582,1583457,1884545
1476926,1585477,1883404
1477340,1586525,1884602
1477115,1587931,1884923
1477318,1588622,1884421
1477222,1589658,1884949
1477108,1590509,1884925
1477290,1591823,1884589
1477504,1593554,1883788
1477987,1595347,1884729
1478447,1597163,1884454
1478946,1597657,1884565
1479164,1598950,1883806
1479345,1599697,1884099
1479492,1600462,1884359
1479562,1601187,1884153
1479437,1602135,1883705
1479437,1602654,1884788
1479702,1603603,1884547
1479809,1604739,1886316
1479925,1605644,1887118
1480317,1605508,1885830
1480811,1605626,1887344
1480978,1606325,1887536
1481334,1606444,1886230
1481815,1607164,1886610
1482067,1607838,1888204
1482185,1608552,1886735
1482525,1609068,1887499
1483027,1609224,1887531
1483460,1609254,1887582
1484137,1609345,1887729
1484472,1609245,1887197
1484820,1609042,1887262
1485132,1609756,1886868
1485120,1610710,1887224
1485376,1611576,1887122
1486660,1611884,1887296
1486772,1611423,1887166
1487350,1610303,1886306
1487646,1609327,1886286
1487745,1608608,1887775
1488097,1608519,1887594
1487908,1608691,1886521
1488223,1609116,1886946
1488478,1609707,1887506
1488821,1610281,1887281
1489098,1611060,1886792
1489485,1611378,1887134
1489608,1611908,1887952
1489957,1612332,1888013
1490235,1612311,1887933
1490801,1611846,1887573
1491424,1611573,1886517
1491408,1611021,1885242
1491762,1610517,1884570
1492008,1610556,1884867
1492119,1610855,1883563
1492451,1611644,1883685
1492556,1612601,1883059
1492556,1612835,1882793
1493349,1613097,1882472
1493826,1613157,1881659
1494052,1612976,1881075
1494648,1612466,1881244
1494902,1612048,1881326
1494865,1611850,1881723
1495028,1611951,1881861
1495340,1612207,1880370
1495413,1611612,1879376
1495118,1609967,1879381
1494257,1606529,1878352
1492742,1601569,1878299
1490997,1596975,1876951
1489119,1592495,1877542
1487193,1588106,1877141
1485576,1584411,1876810
1483875,1581727,1873936
1482608,1579399,1872526
1481321,1578186,1869756
1480739,1577261,1866759
1479706,1577010,1865560
1479494,1576450,1865282
1479494,1576923,1862866
1478719,1577544,1862069
1478666,1578850,1862146
1478743,1580040,1862807
1478713,1581271,1862028
1478702,1581049,1862078
1478548,1580841,1861008
1478515,1581073,1862335
1478647,1580693,1861677
1478702,1581117,1860774
1478784,1581596,1861488
1478951,1581629,1860288
1478656,1581796,1860349
1479192,1582547,1858659
1479429,1582882,1857945
1479391,1582988,1858785
1479739,1582786,1856995
1479790,1583031,1857624
1480125,1583471,1858553
1479843,1584487,1858214
1480164,1584914,1857265
1479674,1585599,1858942
1479824,1586098,1858468
1479824,1585937,1858402
1480124,1586147,1857846
1480301,1586722,1857833
1480773,1587243,1858421
1480929,1587760,1859160
1481006,1588759,1859159
1482263,1591274,1859966
1482736,1592972,1860458
1483262,1594478,1860580
1483553,1595629,1861546
1484171,1596632,1860817
1484488,1596700,1862122
1484996,1597432,1861474
1485434,1598204,1862085
1485888,1598924,1861912
1486185,1599629,1862495
1487024,1599578,1861250
1487370,1599583,1861647
1487699,1599489,1860085
1488036,1599665,1861333
1488291,1599694,1861002
1488389,1599967,1860797
1488389,1599965,1861217
1488473,1600511,1863334
1488912,1600827,1861862
1489135,1601859,1861554
1489507,1602246,1861197
1490015,1602907,1861808
1491044,1604604,1863698
1491037,1606332,1863979
1491776,1607295,1863990
1492267,1608889,1863501
1492687,1610601,1864845
1493331,1612428,1864338
1493814,1613950,1865559
1494295,1615164,1865993
1495122,1615501,1865888
1495914,1616555,1866321
1496330,1616900,1866410
1496819,1617281,1867273
1497259,1617949,1868292
1497829,1619102,1867260
1498417,1620397,1867448
1498761,1621608,1868238
1499258,1622492,1869711
1499258,1622950,1868146
1499719,1622446,1869201
1500175,1621435,1871340
1500187,1618372,1869708
1499584,1614218,1871695
1498655,1609727,1871818
1493591,1601640,1874428
1491763,1598852,1873281
1489887,1596460,1875736
1488347,1594403,1876130
1486963,1592922,1876134
1485936,1591480,1875289
1485189,1591026,1876212
1484749,1590184,1875815
1484719,1589781,1876592
1484506,1590107,1877015
1484457,1590686,1877605
1484165,1591153,1878717
1484173,1591876,1879346
1483998,1592323,1878521
1483551,1592062,1877383
1483042,1591886,1877947
1483042,1591347,1876455
1482937,1591020,1874100
1482786,1590941,1871146
1482652,1591563,1871282
1482650,1592474,1868070
1482505,1593413,1866862
1483443,1594559,1865050
1483464,1594735,1864449
1483630,1594562,1861960
1483914,1594670,1862530
1483907,1594505,1860752
1483773,1594246,1859883
1483989,1594931,1859391
1484195,1595964,1859513
1484227,1596148,1857997
1484582,1596547,1858382
1484950,1596389,1857523
1485049,1596121,1857009
1485166,1596176,1857193
1485430,1596549,1857895
1485632,1597154,1856489
1485547,1597685,1857756
1485547,1598561,1855888
1485874,1599099,1855055
1486178,1599734,1853849
1486684,1600305,1854139
1486833,1600424,1853881
1487333,1600929,1853090
1488053,1600637,1853385
1488560,1600685,1853192
1488990,1600721,1852316
1489136,1601308,1851216
1489437,1602429,1852513
1489673,1602688,1851104
1490131,1603051,1851933
1490811,1601729,1851893
1491860,1602109,1853586
1492894,1605890,1853189
1493759,1607335,1852479
1494362,1607628,1852897
1494795,1607103,1851850
1495092,1607867,1852548
1495332,1608432,1852674
1495549,1609485,1853014
1496043,1610638,1852907
1496739,1611719,1853163
1496951,1612652,1853919
1497658,1613143,1854251
1498061,1613663,1854956
1498237,1613843,1854936
1498560,1613477,1855394
1499308,1613817,1854928
1499835,1614183,1854737
1500220,1615086,1855205
1500767,1616168,1854930
1501287,1617501,1854360
1501735,1618456,1854275
1502194,1619287,1854063
1502431,1620333,1855254
1502431,1620904,1856197
1502856,1620785,1856042
1503441,1620008,1857568
1503433,1618033,1857130
1503295,1615695,1857604
1502675,1612703,1858405
1501210,1609118,1858369
1495908,1601731,1857436
1494118,1598476,1857884
1492482,1595497,1858496
1490929,1592759,1858273
1489801,1590890,1857843
1488555,1589816,1859052
1488138,1590042,1858146
1487850,1591156,1858530
1487877,1593179,1857771
1488067,1594867,1859710
1487995,1596203,1859680
1488169,1597041,1860201
1488099,1597865,1860204
1488183,1597685,1859964
1487752,1597225,1860447
1487547,1596666,1861135
1487547,1596265,1861481
1487552,1596164,1860095
1487794,1597440,1859558
1487838,1598341,1860275
1488013,1599289,1859633
1488044,1600460,1860130
1488188,1601622,1859704
1488774,1602128,1860303
1488908,1602800,1860490
1489128,1602324,1861000
1489065,1601350,1862210
1489102,1599982,1862790
1488874,1599353,1862905
1489030,1599088,1861531
1488926,1599273,1860841
1489363,1599579,1860911
1489629,1600101,1859489
1489572,1600062,1857514
1489737,1600449,1854782
1490066,1600820,1851935
1490256,1601477,1850805
1490662,1602105,1850713
1490625,1602404,1850160
1490625,1602823,1848457
1490924,1603658,1848210
1491308,1604372,1846504
1491860,1605351,1846036
1492137,1605338,1845874
1492649,1605390,1846908
1493471,1605636,1846185
1493839,1606406,1845685
1494209,1606918,1847069
1494499,1606897,1846038
1494706,1606739,1845224
1495029,1606165,1843903
1495225,1606542,1843903
1495733,1607053,1843024
1495929,1607575,1842873
1496322,1608294,1844530
1496915,1609208,1843210
1497291,1609891,1843000
1497473,1610665,1843579
1497977,1610848,1843150
1498073,1611462,1841371
1498595,1611408,1843388
1498568,1611353,1844874
1498568,1610810,1845810
1499049,1610186,1845403
1499353,1609761,1846156
1499726,1609370,1845929
1499913,1608561,1845643
1500169,1608041,1849135
1500913,1608233,1846068
1501332,1609087,1846030
1501570,1609310,1846440
1501699,1608620,1850824
1501355,1606562,1849826
1500347,1602487,1849519
1499027,1597803,1850886
1497459,1592359,1850228
1495238,1586922,1850602
1493318,1580852,1851000
1491335,1576557,1853207
1489686,1573172,1850611
1487509,1570810,1852054
1486345,1569388,1851978
1485294,1568558,1852558
1484273,1567732,1852858
1484273,1567043,1854493
1483721,1566686,1854456
1483533,1566743,1855030
1483197,1567454,1855391
1483157,1568273,1856350
1483051,1568245,1856604
1482966,1570422,1857219
1482958,1570424,1855736
1482780,1569515,1856614
1482553,1569007,1857233
1482653,1568546,1856917
1482719,1568107,1858730
1482823,1568885,1856749
1482910,1569760,1858897
1483158,1570031,1858443
1483073,1570884,1858959
1483530,1571314,1858895
1483428,1571338,1859860
1483725,1570989,1860976
1483794,1569878,1860910
1483626,1568658,1860875
1483315,1568027,1862124
1483081,1567782,1862075
1483081,1567542,1864472
1483212,1567670,1864126
1482976,1568170,1865724
1483180,1569267,1866313
1483491,1569825,1864860
1483833,1570651,1866502
1484523,1571191,1865677
1485042,1571183,1866206
1485251,1570882,1867159
1485494,1570814,1867326
1485939,1570827,1868670
1485929,1570912,1868486
1486264,1572019,1868064
1486731,1572540,1868940
1487318,1573303,1867014
1487566,1573765,1865871
1488248,1574209,1865147
1488518,1574211,1866083
1488817,1574982,1863298
1489184,1575714,1862999
1489314,1576238,1860687
1489476,1576821,1859412
1489476,1576774,1857565
1489650,1576660,1858136
1490211,1576487,1856697
1490263,1576583,1856123
1490730,1576702,1855395
1490890,1577067,1855821
1491777,1579155,1856780
1492198,1579834,1857658
1492574,1580001,1857497
1493007,1579981,1858728
1492977,1579323,1856485
1493400,1578354,1854440
1493435,1577045,1853443
1493649,1576292,1855584
1494248,1575578,1855621
1494592,1575604,1855303
1494928,1575758,1855521
1495291,1575861,1854787
1495452,1576431,1855176
1495412,1576834,1853579
1495725,1576467,1854887
1495481,1575699,1855026
1495037,1572731,1853753
1495037,1567710,1855479
1493911,1563048,1856680
1492386,1558270,1855309
1490343,1553445,1855365
1488190,1549509,1855314
1485817,1546371,1855780
1481097,1542851,1854071
1479963,1542904,1854296
1479480,1543783,1854682
1478999,1544472,1855827
1478932,1544590,1856231
1478346,1545274,1856578
1478435,1545462,1857443
1478424,1545131,1856635
1478493,1544638,1857108
1478229,1543571,1857697
1477820,1542253,1858707
1477191,1543350,1858162
1477757,1546439,1858494
1477849,1547512,1858468
1478241,1547481,1858967
1478374,1547495,1857795
1478277,1547479,1857800
1478403,1547522,1857953
1478216,1547850,1858246
1478261,1548450,1857419
1478467,1549562,1858171
1478635,1551155,1857651
1478730,1552554,1857567
1479060,1554116,1855998
1479437,1555572,1855361
1479774,1557182,1856890
1479995,1558850,1856989
1480500,1560316,1857212
1481102,1561658,1857082
1481631,1563148,1857084
1481927,1564319,1856838
1482514,1565700,1857243
1482881,1567089,1857834
1483243,1568722,1856660
1483507,1569639,1857258
1484129,1570336,1858516
1484129,1570800,1859439
1484632,1571247,1860133
1485120,1572311,1861287
1485518,1572924,1861401
1485792,1573945,1861580
1486195,1574201,1861120
1487387,1574555,1859459
1487598,1575083,1858433
1488068,1575380,1859956
1488425,1575937,1859600
1488760,1576275,1860175
1488963,1576159,1859966
1489331,1576896,1860224
1489425,1577208,1861455
1489985,1578259,1861402
1490554,1578747,1860733
1490908,1579067,1858766
1491257,1579480,1856763
1491598,1580355,1854892
1492050,1581312,1852862
1492140,1582231,1851371
1492389,1583034,1850311
1492389,1583916,1850483
1492653,1584520,1849336
1493323,1585864,1850855
1493862,1587076,1851230
1494090,1588274,1851942
1494607,1588955,1853609
1495886,1591010,1852902
1496371,1592295,1852903
1496852,1593381,1852317
1497429,1595123,1852287
1497869,1596608,1852479
1498324,1597785,1851594
1498738,1599359,1851208
1499483,1600859,1850470
1500200,1601668,1850196
1500829,1602036,1849860
1500679,1600904,1849197
1500278,1598578,1848824
1499151,1594614,1847791
1497573,1591088,1847421
1495663,1587378,1846772
1493530,1584092,1845953
1493530,1581054,1844773
1491865,1577906,1843843
1489949,1575284,1843330
1488583,1573513,1843517
1487279,1571934,1845304
1486243,1570907,1845425
1484511,1572454,1846041
1484512,1574279,1846351
1484539,1575941,1845384
1484413,1577173,1846552
1484376,1577933,1846149
1484344,1578301,1844757
1484193,1578443,1843895
1484219,1578537,1843442
1484459,1579362,1843782
1484618,1580921,1842983
1485089,1583349,1843539
1485240,1586042,1844493
1485570,1588430,1844634
1485890,1591056,1844522
1486423,1593546,1844646
1486748,1595468,1844803
1486748,1596514,1843633
1486863,1596942,1843642
1487264,1597700,1843896
1487625,1598818,1843879
1487933,1599853,1844580
1488252,1600851,1845529
1489357,1603022,1847013
1489442,1604158,1846635
1489915,1604220,1846582
1490127,1604107,1847192
1490495,1603741,1848462
1490720,1602709,1848751
1490795,1602171,1848075
1491092,1602644,1848590
1491795,1603090,1849035
1492166,1603950,1848108
1492630,1604548,1850817
1492971,1605228,1851002
1493653,1605656,1852892
1493658,1606128,1852716
1494050,1606509,1853902
1494608,1606836,1853585
1494551,1606888,1853473
1494551,1607583,1852188
1494935,1608043,1852989
1495441,1608938,1853245
1495854,1610127,1856860
1496255,1610771,1855761
1496764,1611178,1855501
1497777,1611800,1856756
1498023,1611862,1861587
1498345,1611462,1858725
1498822,1611468,1858706
1499084,1611659,1858558
1499353,1611272,1858837
1499505,1611564,1858921
1499649,1611727,1858840
1500356,1611115,1858099
1500865,1611599,1858569
1501213,1611572,1861656
1501363,1611624,1862579
1501790,1612167,1861848
1501752,1612711,1861023
1502404,1613539,1861884
1502549,1614757,1860879
1502723,1615716,1864066
1502723,1616407,1863245
1503391,1616765,1863564
1503895,1616343,1861245
1504161,1615623,1861101
1504599,1614291,1859628
1504486,1612271,1859662
1502904,1604889,1857888
1501305,1599843,1857012
1499251,1595412,1854776
1496936,1590775,1855513
1494784,1586307,1853156
1492546,1582885,1851609
1491135,1580074,1850844
1489512,1577577,1851442
1488608,1576213,1851884
1487862,1574851,1851176
1487137,1574647,1851504
1486717,1574813,1852452
1486261,1579917,1853286
1485616,1579778,1852844
1485491,1579119,1855009
1485232,1579329,1852320
1485426,1580414,1853230
1485427,1582318,1852159
1485346,1584242,1852092
1485684,1585689,1851641
1486010,1587015,1852692
1486394,1587451,1853533
1486512,1587482,1853963
1486699,1586868,1853632
1486528,1586576,1855433
1486551,1587256,1854824
1486954,1588706,1855550
1487401,1590016,1853046
1487679,1591625,1854550
1487853,1592453,1853966
1488060,1593269,1857020
1488380,1593579,1855844
1488551,1593679,1858899
1488940,1593554,1859442
1488940,1592832,1858546
1488626,1592106,1860157
1488965,1591883,1860772
1489653,1591557,1862567
1490005,1591779,1863399
1490098,1592239,1864892
1490342,1592216,1864647
1490644,1592793,1866328
1490767,1593008,1867290
1491242,1593042,1867368
1491571,1592972,1869094
1491948,1592933,1869449
1492170,1592961,1869631
1492281,1592716,1870418
1492422,1592877,1869397
1493346,1592870,1871914
1494613,1593456,1871138
1495199,1592982,1871377
1495570,1591745,1872774
1496028,1592033,1873226
1496205,1592035,1875840
1496331,1592185,1874847
1496558,1592371,1875896
1496690,1592452,1875444
1496837,1592302,1876671
1497224,1591655,1876543
1497605,1591495,1876188
1497767,1591169,1876567
1498133,1591286,1877476
1498285,1590365,1877609
1498596,1591061,1878142
1499081,1591774,1878342
1499697,1592863,1879385
1500022,1593989,1879871
1500565,1595838,1880170
1500797,1596945,1879612
1501385,1598227,1880020
1501780,1598875,1880406
1501874,1598918,1880861
1501965,1597081,1880183
1498084,1583738,1878993
1496176,1579353,1880145
1494234,1575296,1880120
1492384,1571981,1879574
1490457,1569366,1879002
1488581,1567324,1878786
1487349,1567029,1878967
1486762,1567382,1878207
1486158,1568406,1877409
1486043,1570108,1878572
1485724,1572027,1879080
1485879,1574047,1878231
1485796,1575335,1876262
1486088,1576089,1875370
1486237,1576285,1874026
1486225,1576104,1871950
1486116,1576316,1870575
1485694,1576482,1867099
1485736,1577244,1865655
1485668,1578866,1863358
1485726,1581102,1862752
1485795,1582573,1859837
1485795,1583915,1858372
1486170,1584291,1858068
1486533,1584673,1858779
1486676,1584874,1859107
1486899,1584609,1857332
1487751,1586581,1857668
1487882,1588095,1857513
1488224,1589570,1857959
1488542,1590580,1857136
1488725,1591468,1857595
1488929,1591590,1857366
1489069,1591534,1857119
1489209,1591237,1856099
1489661,1591745,1855830
1490192,1592758,1858620
1490758,1594411,1857358
1491204,1595617,1857138
1491625,1597082,1855850
1492110,1598207,1856012
1492462,1598965,1856444
1492852,1599902,1856686
1493095,1601017,1856709
1493095,1601811,1857292
1493750,1603217,1856760
1494173,1604240,1856995
1494652,1606065,1857698
1495088,1606755,1858336
1495666,1607720,1859241
1497250,1608462,1860331
1497397,1608024,1859456
1497740,1607846,1860235
1498122,1607594,1860955
1498395,1607152,1860724
1498730,1607168,1861776
1498900,1606982,1862488
1499320,1606861,1861909
1499807,1606492,1861623
1500194,1606147,1863170
1500353,1605640,1862065
1500740,1605701,1862823
1500859,1606261,1864314
1500977,1607318,1864753
1501053,1608529,1864383
1501393,1609559,1865068
1501393,1610851,1865880
1501797,1611366,1864721
1502323,1611689,1864482
1502594,1611669,1864552
1502976,1611100,1863720
1503418,1610956,1863644
1504414,1612189,1863109
1504950,1613638,1864348
1505308,1614983,1864337
1505857,1616745,1863085
1506274,1618200,1864267
1506461,1619456,1862610
1507275,1620935,1862313
1507847,1621696,1862488
1508616,1622162,1861205
1509105,1622696,1862030
1509611,1623296,1862072
1509885,1624527,1862487
1510571,1625437,1862426
1511088,1626648,1862165
1511408,1628053,1862033
1511472,1628296,1861838
1511472,1627245,1862629
1511713,1624433,1861652
1511141,1620010,1861891
1510580,1614959,1861302
1509142,1609844,1862229
1507142,1605334,1861696
1500769,1598078,1862182
1499203,1592557,1862714
1496203,1591014,1863826
1495418,1589671,1862229
1494666,1588589,1863596
1493864,1588644,1862218
1493858,1588962,1861490
1493634,1590083,1859314
1493588,1590975,1856600
1493625,1592416,1853271
1493461,1593223,1851434
1493146,1593646,1849527
1493095,1594041,1845674
1492854,1594201,1843526
1492344,1593901,1844784
1492344,1593686,1842006
1492301,1594033,1840795
1492443,1594079,1840556
1492529,1594836,1841132
1492703,1595711,1839938
1492890,1596535,1839506
1493450,1598259,1839367
1493282,1599241,1839366
1493508,1599024,1838669
1493622,1599207,1838120
1493396,1599173,1842907
1493475,1598762,1838237
1493698,1598416,1839220
1493743,1598368,1838264
1494036,1598261,1839111
1494480,1599425,1839427
1494760,1599893,1838763
1494747,1600260,1838509
1494975,1600938,1837875
1494928,1601482,1839427
1495829,1602405,1839935
1495832,1602736,1838647
1495920,1603561,1840524
1495920,1604724,1841754
1496451,1605998,1844426
1496827,1607765,1844948
1497364,1608998,1846661
1497957,1609302,1846261
1498248,1609580,1848472
1499410,1608135,1847739
1499843,1607853,1848578
1500071,1607596,1850025
1500319,1607363,1849733
1500690,1607791,1851265
1500981,1608504,1851508
1501250,1609671,1852349
1501510,1610799,1852326
1502340,1611352,1852657
1502752,1611340,1853289
1503200,1610908,1851926
1503369,1609838,1852275
1503590,1608848,1852566
1503681,1608118,1852142
1503662,1608115,1854766
1503739,1608649,1854561
1503730,1608982,1855055
1503730,1609515,1853662
1504307,1610052,1854191
1504702,1610482,1852860
1504819,1610516,1854357
1505436,1609341,1852881
1505561,1608597,1855321
1506381,1606747,1854694
1506581,1606925,1855507
1507000,1607408,1856617
1507339,1607923,1855355
1507391,1608034,1857348
1507540,1607902,1857101
1507758,1607279,1859335
1507453,1604942,1856754
1506766,1600967,1859422
1505457,1595809,1858590
1503428,1590235,1858616
1500993,1585067,1858348
1498772,1581014,1858656
1496515,1577969,1859098
1494689,1575746,1857943
1492898,1573474,1858097
1492898,1571512,1858335
1491493,1569449,1858943
1490681,1567958,1858696
1489834,1566292,1859660
1488996,1565461,1860502
1488440,1564719,1859636
1487909,1565360,1858632
1487455,1566366,1859725
1487130,1566630,1860649
1486973,1567153,1861691
1486726,1566380,1863228
1486653,1565988,1863197
1486305,1565714,1863194
1486541,1565986,1865132
1486377,1566475,1864123
1486749,1566762,1863980
1486622,1567078,1865360
1486592,1567066,1865934
1486785,1566492,1867005
1486971,1566384,1867458
1486839,1566015,1867094
1486326,1566103,1866760
1486326,1565339,1863168
1486148,1565640,1861025
1486290,1565724,1859388
1486423,1566501,1857969
1486586,1567263,1855028
1486702,1568167,1853452
1487153,1569896,1852110
1487550,1570391,1851010
1487913,1570253,1850703
1487968,1570730,1850108
1489252,1572773,1848620
1490534,1574941,1848127
1491735,1574764,1848350
1492559,1574080,1847648
1493348,1576698,1848360
1493892,1578158,1846473
1494179,1578744,1845901
1494861,1578944,1846905
1494934,1579271,1845675
1494872,1579036,1844942
1495249,1578656,1845347
1495784,1578140,1847175
1496182,1578320,1846657
1496504,1578777,1846356
1496634,1579281,1846706
1496946,1579240,1848150
1497071,1579418,1847000
1497522,1579404,1847011
1498112,1579426,1847042
1498189,1579287,1847135
1499141,1580195,1849610
1500139,1583985,1851401
1501249,1585120,1852492
1502005,1585788,1852858
1502410,1585747,1852347
1502376,1585764,1852704
1502128,1584570,1854162
1501417,1581700,1852427
1500171,1578241,1853296
1498583,1573296,1853369
1496488,1568707,1853561
1494392,1563444,1854118
1492103,1558908,1854324
1489927,1554159,1854847
1488108,1550615,1856848
1487028,1547487,1856008
1485947,1545738,1856764
1485203,1544271,1856519
1484516,1544050,1859131
1484218,1544229,1859514
1483864,1545032,1858629
1483727,1545902,1860211
1483561,1545940,1862624
1483451,1545741,1861377
1483451,1545080,1863369
1482980,1544790,1863153
1482803,1544722,1863687
1482615,1545293,1863486
1482609,1545794,1864865
1482413,1546552,1865101
1483134,1549651,1865794
1483433,1551481,1865060
1483665,1551467,1865520
1483517,1551682,1867338
1483770,1551395,1868471
1483779,1551910,1867699
1483933,1552581,1867419
1484276,1554092,1868846
1484823,1556001,1868297
1484915,1557717,1869174
1485392,1559499,1869905
1485536,1561144,1871030
1485783,1562597,1872048
1486360,1563682,1871493
1486614,1564634,1872203
1486525,1565233,1873046
1486525,1565764,1873643
1486967,1566142,1873418
1487381,1566892,1874445
1487756,1567777,1875640
1488675,1568637,1876638
1489124,1569562,1876835
1489516,1570879,1877637
1489619,1571822,1876770
1490206,1572521,1875657
1490786,1573008,1874864
1491125,1574215,1875687
1491427,1575145,1874948
1492018,1576131,1876235
1492410,1577351,1875953
1492901,1578517,1875098
1493547,1579726,1876340
1494305,1580579,1875496
1494710,1580743,1872182
1495168,1580446,1870324
1495367,1580164,1866432
1495643,1580336,1863230
1496083,1580601,1861257
1496410,1581291,1858481
1496189,1582417,1854288
1496189,1583068,1852413
1496745,1584020,1852193
1497239,1585290,1850781
1497681,1586922,1850423
1498263,1588285,1850685
1498918,1589520,1850587
1500181,1591710,1851316
1500609,1591846,1851364
1501170,1591713,1851290
1501663,1591755,1851439
1502005,1591546,1850762
1502231,1592290,1850370
1502624,1593466,1850172
1503064,1595014,1848247
1503663,1596999,1847397
1504493,1599125,1848983
1505056,1601429,1848435
1505790,1603062,1848047
1506179,1604531,1847271
1506996,1605825,1846796
1507764,1606939,1847360
1507796,1608231,1847732
1508307,1608919,1846744
1508307,1608270,1848224
1508762,1606235,1848592
1508427,1603015,1848152
1507682,1598907,1849520
1506512,1593578,1850183
1504789,1589496,1852734
1498747,1581167,1852397
1496708,1577610,1852581
1495151,1575448,1853222
1494076,1573421,1857868
1492933,1572448,1855152
1492355,1572298,1855719
1491909,1573180,1854883
1491716,1574218,1856562
1491979,1575633,1856584
1492027,1577013,1857794
1491929,1578166,1856869
1492071,1579100,1857418
1492143,1580042,1855961
1492080,1580966,1857262
1492022,1582322,1857928
1491874,1583600,1857215
1491874,1585138,1857549
1491628,1585931,1855148
1492380,1586980,1854764
1492768,1587625,1853631
1493114,1586790,1852807
1493111,1586045,1851310
1493333,1585318,1852552
1493445,1586288,1853892
1493603,1586804,1853419
1493601,1588273,1854620
1493831,1588920,1856539
1493559,1589105,1856264
1494067,1589527,1856129
1494131,1588767,1856714
1494584,1587793,1855634
1495234,1586566,1855361
1495875,1588442,1855914
1496661,1589804,1856009
1497351,1590632,1857090
1497526,1590230,1858590
1497727,1590198,1859460
1498104,1590192,1859876
1498750,1590777,1859876
1499132,1591131,1860707
1499445,1591177,1861013
1499741,1591602,1860250
1500150,1591090,1860735
1500194,1590487,1861847
1500242,1589787,1861066
1501034,1590436,1862878
1502225,1591132,1862565
1502806,1588669,1863714
1503446,1588342,1863793
1503778,1589971,1864065
1504045,1590687,1861172
1504227,1591392,1860423
1504700,1591950,1858005
1504745,1591593,1857103
1504617,1591235,1853385
1505363,1591242,1850669
1505514,1591118,1847932
1505186,1590010,1845222
1504565,1587836,1843717
1503183,1584373,1842854
1501308,1580722,1842608
1495687,1569240,1842608
1491679,1562816,1843436
1489648,1563166,1842401
1489018,1564734,1842008
1489396,1565296,1843409
1489660,1565862,1843467
1489509,1566460,1842932
1489489,1566220,1843273
1489270,1565899,1843492
1489390,1566294,1843393
1489622,1566863,1842426
1489433,1567312,1842703
1489935,1567538,1842570
1490218,1566988,1844759
1490186,1566633,1844785
1490919,1569323,1845630
1491369,1570334,1844982
1491732,1570242,1845416
1492032,1569798,1845697
1492645,1569856,1846600
1492469,1570242,1845543
1492824,1571587,1845480
1493266,1572588,1845383
1493874,1574266,1846015
1494386,1575816,1845671
1494969,1576849,1845679
1496231,1578257,1847131
1497419,1579038,1848798
1498518,1579822,1848254
1499777,1582288,1848402
1499859,1583192,1849314
1500302,1583801,1848811
1500859,1584367,1849070
1501055,1584927,1850832
1501570,1585826,1850559
1501670,1586021,1850660
1502164,1585414,1851477
1502390,1585051,1850657
1502800,1583966,1853211
1503060,1584196,1852368
1503288,1583718,1852556
1503644,1583852,1852351
1503864,1584021,1853068
1504156,1584505,1852654
1504682,1584967,1851804
1505180,1585162,1852570
1505601,1585339,1852393
1505825,1585443,1852866
1506348,1586052,1853026
1506642,1586801,1854259
1506942,1587549,1853695
1506990,1588144,1852753
1506990,1588197,1852938
1507114,1587041,1853500
1507167,1584589,1852327
1507078,1580709,1853708
1505884,1575901,1855137
1504311,1570941,1854701
1502256,1566699,1855404
1495858,1559557,1854950
1493928,1557215,1854892
1492477,1554969,1854513
1491264,1553323,1854025
1490082,1552152,1855081
1489458,1552146,1855912
1489189,1553106,1855775
1489029,1554686,1857656
1489506,1556557,1856827
1489043,1558181,1856644
1489293,1559360,1855993
1489294,1559916,1857028
1489334,1560260,1856677
1488976,1560195,1858269
1488731,1559448,1858601
1488731,1559459,1857772
1488207,1560573,1860275
1488328,1561509,1860295
1488438,1563119,1860196
1488739,1564161,1861554
1488987,1564963,1861829
1489390,1564789,1859592
1489469,1564521,1859188
1489625,1564331,1857074
1489599,1564703,1855043
1489470,1565691,1852762
1489775,1566966,1851223
1489748,1568693,1849810
1490014,1570536,1848828
1490564,1572182,1848100
1491129,1574448,1844293
1491689,1576268,1843381
1492200,1578021,1843234
1492409,1579671,1843456
1493000,1581506,1843264
1493736,1583201,1844474
1493666,1584479,1844672
1494196,1585846,1845603
1494196,1587437,1845224
1494788,1588513,1845845
1495310,1590370,1844931
1496081,1591940,1845320
1496571,1593021,1845843
1496858,1594293,1846088
1498754,1596387,1846807
1499269,1598447,1846625
1500146,1599490,1845759
1500708,1600603,1846232
1501011,1601469,1845749
1501525,1602710,1846794
1502023,1603504,1846466
1502963,1604081,1848025
1503246,1604022,1847770
1503573,1603880,1849376
1503794,1604281,1850274
1504254,1604855,1849396
1504693,1606044,1851597
1505035,1607750,1851807
1505308,1609338,1850408
1505308,1611003,1851191
1505942,1612227,1853154
1506473,1613353,1853992
1507011,1613338,1854359
1507642,1612980,1854995
1508016,1612451,1855075
1509201,1614411,1856710
1509624,1616110,1857433
1510357,1617696,1858566
1511015,1619133,1862578
1511183,1620325,1863133
1511896,1620465,1864736
1512401,1621803,1864655
1513135,1622322,1866596
1513617,1623588,1867061
1515197,1626453,1867408
1515822,1628666,1869490
1512165,1620353,1873715
1510324,1616439,1875162
1508534,1612246,1874954
1506384,1608932,1874625
1504776,1606832,1876825
1503034,1605370,1877549
1501892,1603905,1877715
1501129,1603512,1878555
1500376,1603277,1878992
1499948,1603143,1880884
1499606,1602544,1880825
1499054,1601303,1882042
1498859,1600236,1882735
1498599,1599497,1883817
1498299,1598033,1882576
1498232,1597089,1885667
1497912,1596232,1886834
1497369,1595584,1888086
1497195,1595303,1888100
1497137,1595404,1888958
1496997,1595866,1889356
1496758,1595808,1889912
1496758,1595972,1890903
1496756,1595491,1890593
1496835,1594814,1892480
1496455,1593407,1893063
1496190,1592686,1894815
1496296,1592434,1896580
1496149,1592665,1897547
1495731,1592325,1899031
1495519,1591867,1899353
1495578,1592019,1898658
1495307,1592635,1899364
1495438,1592269,1897330
1495462,1592104,1897721
1495667,1591901,1895359
1495638,1592479,1896844
1496023,1592779,1897010
1496283,1593775,1900107
1496897,1594049,1902726
1497077,1594419,1906195
1497197,1594696,1906114
1497534,1594290,1909600
1497803,1595044,1911916
1497859,1595881,1919350
1497859,1595973,1919350
1497775,1596379,1919626
1498302,1596790,1919555
1498520,1597813,1919370
1499075,1598108,1920854
1499367,1597989,1919157
1500108,1597648,1917442
1500175,1597226,1917479
1500489,1596292,1916571
1500695,1595521,1916668
1500853,1594983,1915894
1500975,1594163,1915110
1500962,1594505,1913566
1501336,1595160,1910624
1501768,1596441,1909877
1502324,1596601,1908145
1502340,1596790,1908963
1502647,1596973,1907615
1502834,1596899,1908283
1502966,1596808,1906439
1503379,1597077,1907044
1503344,1597163,1904914
1503462,1597599,1905951
1504435,1596669,1906593
1504742,1596505,1904444
1505033,1595857,1903219
1505394,1595747,1903564
1504642,1594328,1904119
1504072,1591867,1904592
1502715,1588451,1905576
1501389,1584127,1905200
1499422,1579642,1904568
1497289,1574902,1905194
1494893,1570309,1904300
1492864,1566377,1905094
1491161,1563096,1905472
1489932,1560801,1905549
1488739,1559683,1905200
1487893,1558949,1905015
1487286,1559021,1905328
1487029,1560499,1905392
1487061,1561867,1905502
1486815,1564058,1905807
1486915,1563417,1905434
1486882,1562623,1905616
1486725,1562868,1904889
1486657,1563753,1904841
1486681,1565188,1903769
1486841,1567092,1904271
1487043,1568795,1903196
1487471,1570118,1903885
1487623,1570641,1903463
1487928,1570644,1904692
1487999,1569634,1905313
1488093,1568750,1906313
1488250,1568623,1906407
1488259,1569140,1906326
1488484,1569567,1906959
1488879,1569925,1907571
1488852,1570273,1907267
1488865,1570833,1908844
1489144,1570580,1908372
1489364,1571530,1908058
1489652,1571597,1907325
1489471,1572131,1904853
1489471,1572134,1902785
1489590,1572568,1901568
1489978,1572909,1898011
1490550,1573643,1892903
1490735,1573900,1889764
1491024,1574443,1888978
1492098,1575027,1887118
1492620,1575340,1885866
1493206,1575779,1886741
1493591,1576624,1885733
1493943,1578140,1886621
1494144,1578963,1887786
1494604,1579785,1887066
1495245,1580851,1886904
1495651,1581682,1886379
1496317,1581741,1885399
1496531,1581157,1886516
1497051,1580611,1885327
1497182,1579932,1883687
1497502,1579983,1884120
1497723,1581005,1885111
1498056,1581978,1884674
1498056,1583183,1884049
1498323,1584495,1884298
1498555,1585228,1882875
1498988,1586099,1881670
1499519,1586267,1881132
1499799,1586252,1880845
1500928,1589165,1882226
1501510,1591470,1882524
1502227,1593425,1882820
1502682,1595736,1883730
1503525,1597544,1883514
1503998,1598447,1882678
1504599,1599182,1882835
1505082,1599554,1881012
1505964,1599771,1880860
1506435,1600262,1881010
1507004,1601165,1881740
1507465,1601876,1882247
1507894,1602934,1883615
1508291,1603535,1885107
1508822,1604377,1884540
1509094,1604766,1886031
1509094,1604515,1885397
1509582,1603343,1884921
1509775,1601016,1885122
1509451,1596953,1884772
1508617,1591868,1884113
1507332,1586115,1883279
1500445,1576359,1883458
1498091,1572254,1887756
1496200,1568668,1885950
1494672,1566518,1885785
1493025,1564741,1886833
1492033,1563402,1886729
1491149,1562914,1887385
1490783,1563182,1887366
1490564,1563329,1888474
1490825,1563880,1887982
1490285,1564431,1889406
1490070,1564438,1889423
1489917,1564039,1890306
1489928,1563714,1891872
1489490,1563134,1892715
1489183,1562977,1892175
1489183,1562995,1892235
1488806,1563788,1892733
1489098,1564848,1893250
1489052,1566788,1894014
1489425,1567865,1895398
1489775,1568517,1893094
1489851,1568915,1895002
1490598,1569351,1895579
1490761,1570217,1894472
1490773,1571083,1893169
1491202,1572333,1892359
1491271,1573567,1890014
1491456,1575109,1887789
1491918,1576875,1884502
1491824,1578046,1882210
1492573,1578454,1878841
1493119,1578610,1876970
1493348,1578946,1875678
1493568,1579479,1873852
1493957,1581169,1872646
1494440,1582354,1871984
1494752,1583984,1872182
1494948,1585271,1871381
1494948,1586723,1871427
1495398,1587407,1870884
1495947,1587855,1870596
1496414,1588258,1870946
1497182,1589071,1870172
1497506,1590465,1869378
1498903,1594129,1868715
1499459,1595322,1867514
1499935,1596452,1867480
1500508,1597382,1866344
1501073,1598219,1868231
1501468,1598501,1868978
1501830,1599485,1866793
1502378,1600894,1866137
1503012,1602630,1865324
1503890,1604190,1865611
1504419,1605222,1866110
1505100,1605830,1865674
1505624,1606764,1866100
1505782,1606525,1865603
1505705,1607223,1866001
1506152,1607784,1866398
1506152,1608865,1866608
1506666,1609842,1867406
1507372,1611213,1869404
1507900,1612179,1869048
1508336,1612997,1870658
1508921,1613584,1871264
1510270,1615601,1871050
1510867,1616798,1871388
1511377,1617741,1871517
1511816,1618699,1871300
1512566,1619355,1871888
1512918,1619682,1873304
1513290,1620436,1872322
1514020,1620740,1870784
1514588,1620999,1871744
1515066,1620757,1871242
1515730,1620334,1871624
1516069,1620772,1873386
1516218,1621708,1873066
1516887,1622822,1871871
1517405,1624273,1872745
1517617,1625738,1873267
1517617,1626880,1873100
1517935,1627186,1873152
1518604,1626940,1871608
1518682,1625477,1873450
1519145,1622452,1872254
1518865,1618146,1873094
1514378,1608420,1874281
1511828,1603446,1873801
1509635,1599490,1875791
1507408,1595734,1874938
1505327,1592924,1876190
1503625,1590334,1875720
1502561,1588924,1877679
1501379,1587907,1877762
1500933,1587859,1879637
1500868,1587905,1880450
1500563,1588678,1883147
1500512,1589385,1882610
1500354,1591029,1882968
1500316,1591985,1883119
1500134,1592821,1883286
1499757,1593353,1883326
1499757,1593419,1885914
1499639,1593206,1885958
1499724,1593135,1885785
1499716,1593194,1886181
1499708,1593644,1887274
1500120,1593468,1887067
1499861,1594040,1887198
1500408,1595416,1889691
1500576,1595532,1887669
1500629,1595960,1887685
1500744,1596401,1885378
1500690,1596556,1884509
1500673,1596999,1880116
1501623,1599626,1877660
1502453,1601620,1873932
1503690,1602264,1871766
1504203,1602528,1867946
1504389,1602801,1868551
1504979,1603729,1864941
1505417,1605108,1866138
1505800,1606734,1864400
1506056,1607873,1864704
1506607,1608674,1864279
1507071,1609804,1864824
1507313,1610174,1865733
1508759,1611082,1864982
1509937,1613282,1864493
1511373,1613820,1863816
1512405,1613100,1864149
1513364,1614300,1864564
1514103,1615983,1863789
1514388,1616195,1864461
1514623,1616752,1864039
1514894,1616688,1864353
1515153,1616389,1864071
1515517,1616639,1862548
1516067,1616564,1863220
1516551,1616992,1863190
1516835,1617655,1863978
1517142,1618238,1865516
1517574,1619190,1865367
1518019,1620352,1867625
1518640,1621054,1866683
1519206,1621493,1867043
1519785,1621220,1868077
1520063,1620796,1867981
1520616,1620316,1867886
1520792,1620588,1868618
1521312,1621043,1869990
1521377,1621401,1870842
1521459,1621142,1871913
1521459,1619501,1873036
1521328,1616281,1873346
1520822,1611826,1875462
1519492,1606529,1874074
1517569,1600520,1874564
1515066,1595176,1875159
1508146,1587035,1875944
1506225,1584543,1876002
1504736,1582966,1876863
1503383,1581499,1877131
1502577,1580285,1877736
1501525,1579144,1878014
1500919,1578705,1879342
1500677,1578081,1879868
1500754,1578405,1879377
1500486,1578749,1879504
1500429,1579384,1880185
1500068,1579783,1881186
1499943,1580107,1882017
1499695,1579895,1881373
1499380,1579458,1881260
1498868,1578749,1881987
1498868,1578025,1881346
1498747,1577817,1881368
1498856,1578094,1880784
1498819,1578667,1881358
1498813,1578713,1881110
1498744,1578874,1881489
1498737,1578713,1882186
1498778,1578711,1882108
1498553,1578644,1883268
1498674,1578677,1883003
1498530,1578938,1882358
1498684,1578909,1882267
1498637,1578971,1882194
1498727,1578150,1882672
1498980,1577082,1883406
1499059,1576195,1882993
1499251,1574862,1883692
1499411,1573945,1884772
1499209,1573545,1886238
1499347,1573742,1887547
1499369,1574067,1886312
