GREEN,RED,IR
1762953,1411264,1841447
1763329,1411500,1842096
1763309,1412050,1843313
1762958,1412473,1843586
1762958,1412782,1844482
1762772,1413140,1844897
1762816,1413513,1844918
1762622,1413690,1843724
1762514,1413668,1845055
1761823,1413760,1845844
1762460,1414441,1847291
1762401,1414988,1851503
1762398,1415259,1855063
1762075,1415978,1855615
1761955,1416447,1858060
1761810,1416559,1862057
1761423,1417231,1864540
1761408,1418086,1867202
1760540,1419756,1870485
1759212,1422796,1872329
1758322,1426883,1876986
1757954,1430186,1877079
1757405,1433192,1879790
1757362,1435622,1882824
1756983,1438327,1884979
1756861,1440590,1886288
1756861,1442459,1887921
1756852,1444525,1890312
1756589,1446166,1891919
1756291,1448086,1893844
1756278,1449729,1893603
1756200,1450542,1893609
1756398,1452541,1893647
1756801,1453098,1893513
1757279,1453667,1892437
1757621,1454062,1892305
1757724,1453917,1893332
1758096,1453611,1893036
1758147,1453372,1893555
1758595,1453043,1893267
1759023,1452795,1892276
1759551,1452344,1892945
1759972,1451419,1892874
1760026,1450222,1892201
1760443,1448266,1891611
1760269,1446842,1891057
1760569,1444658,1891617
1760300,1443075,1890727
1760353,1441533,1889078
1760353,1440061,1888517
1760468,1438853,1887677
1760690,1438296,1886924
1760814,1437727,1885351
1761046,1436774,1884531
1761201,1436099,1884732
1761432,1435735,1884380
1761514,1435920,1883775
1761650,1435750,1883481
1761556,1435934,1885581
1761664,1435752,1881815
1761463,1435406,1880456
1761474,1435438,1879149
1761625,1435264,1878915
1761722,1435170,1877455
1762290,1435214,1877528
1762212,1435462,1875894
1762066,1435285,1877226
1761662,1435602,1874789
1761908,1435850,1873949
1761951,1436180,1872097
1761715,1436646,1871173
1761557,1436547,1868724
1761557,1436620,1868473
1761583,1436518,1867247
1761723,1436785,1867777
1761509,1436902,1865886
1761516,1436821,1865423
1761369,1436978,1863948
1761519,1437237,1861607
1761235,1437806,1859613
1761352,1437981,1856884
1761302,1438381,1855778
1761220,1438604,1854072
1761177,1438655,1852295
1761173,1438926,1850004
1761292,1439256,1848973
1761601,1439414,1843962
1761654,1439726,1843210
1761777,1439794,1841182
1761731,1439884,1839968
1761643,1440095,1839247
1761725,1440353,1840664
1762285,1441024,1838201
1761752,1441275,1837944
1761793,1441333,1836780
1761793,1441338,1835636
1761848,1441304,1835973
1762028,1441383,1836803
1762214,1441332,1834724
1762318,1441221,1834673
1762208,1441448,1834588
1762352,1441761,1834330
1762370,1442064,1834057
1762717,1442171,1833383
1762704,1442423,1834418
1762546,1441941,1833173
1762687,1441979,1834138
1762912,1442132,1834572
1762910,1442300,1835755
1763485,1442403,1836412
1763328,1442594,1836576
1763212,1442584,1835965
Device connected: 53:7c:96:a3:32:2b,,1837127
1763566,1442364,1836199
1763535,1442523,1838737
1763635,1442777,1837187
1763563,1443292,1839057
1763472,1443051,1839385
1764082,1443454,1839782
1763857,1443415,1840035
1764050,1443277,1840390
1764085,1443413,1839875
1763669,1443621,1839585
1764316,1443750,1839925
1764229,1443518,1841176
1764377,1443555,1841097
1764280,1443017,1841747
1764129,1442777,1841177
1763870,1442539,1841517
1764112,1442112,1840504
1764356,1441330,1841733
1764315,1440836,1840253
1764209,1439478,1839959
1764281,1439229,1840870
1764334,1439231,1840658
1764340,1438910,1840504
1764516,1438454,1840904
1765117,1438725,1840085
1764822,1438880,1840068
1765196,1438547,1840133
1764857,1439075,1840615
1764569,1439079,1839869
1764386,1439244,1841543
1764728,1439192,1840621
1764748,1439234,1841534
1765045,1439379,1842464
1764994,1439297,1842313
1764911,1439098,1843101
1764766,1439419,1843722
1764931,1439532,1843735
1765280,1439684,1844183
1765280,1439519,1843089
1765801,1439234,1842737
1765758,1439690,1842903
1765837,1439701,1843010
1765739,1439785,1842051
1765579,1440207,1841747
1765878,1440162,1839141
1765644,1440429,1840159
1765867,1440563,1840010
1765683,1440391,1839132
1765690,1440639,1838896
1765530,1441157,1839091
1765919,1441483,1838827
1766404,1441920,1838623
MTU changed to 255 for device 53:7c:96:a3:32:2b,,1837087
1766771,1441903,1836909
1766330,1442649,1836733
1766668,1442700,1837230
1766605,1442591,1838097
1766887,1442536,1838692
1766537,1443113,1838935
1766764,1443000,1839022
1766740,1443221,1838123
1767052,1443250,1837814
1767050,1443380,1837320
1767302,1443395,1836784
1766989,1443242,1837936
1767063,1443357,1837775
1767072,1443567,1837625
1767236,1443716,1839255
1767461,1443992,1838564
1767488,1444158,1838919
1767620,1444242,1837862
1767731,1444435,1838047
1767966,1444546,1838452
1767870,1444589,1839615
1767773,1444832,1838400
1767773,1444821,1838553
1767461,1444456,1839051
1767396,1444129,1838318
1767457,1443700,1839288
1767533,1442798,1839453
1767684,1441996,1840982
1767288,1441514,1841430
1767552,1440664,1841522
1767498,1440391,1840719
1767450,1440276,1842335
1767310,1440311,1843043
1767376,1439803,1843052
1767321,1439755,1842174
1767572,1439905,1841655
1767961,1440048,1841913
1768127,1440174,1843228
1768116,1440212,1843057
1767877,1440054,1843616
1768036,1439949,1842746
1768136,1440096,1843349
1768451,1440242,1843588
1768178,1440447,1843603
1768089,1440516,1844470
1768089,1440416,1843946
1768063,1440418,1845304
1768398,1440506,1845080
1768538,1440482,1844990
1768529,1440463,1845793
1768389,1440412,1844377
1768698,1440651,1844807
1768692,1440713,1844099
1769031,1440384,1845503
1769029,1440135,1846227
1769119,1440481,1846841
1769438,1441056,1846293
1769586,1441478,1846510
1769509,1441651,1846530
1769783,1441573,1846139
1770157,1441693,1846830
1769849,1442120,1846308
1769748,1442062,1845294
1770059,1442334,1845542
1770045,1442195,1844397
1770157,1442439,1845090
1770283,1442470,1845408
1770095,1442241,1844177
1769997,1442405,1844592
1770114,1442671,1843588
1770061,1442764,1843114
1770667,1442827,1843756
1770799,1442879,1842035
1770822,1442817,1842025
1771100,1442720,1841935
1771152,1442850,1842773
1771039,1442914,1842195
1770908,1443338,1841864
1770586,1443468,1842196
1770472,1443699,1842743
1770472,1443689,1842525
1770695,1443727,1842604
1770938,1444069,1843044
1771387,1443853,1843303
1771422,1444087,1843760
1771302,1444062,1845064
1771560,1443884,1845571
1771179,1444008,1845781
1771459,1444627,1846390
1771364,1444553,1847070
1771934,1444822,1846160
1771919,1444122,1846532
1771885,1441465,1846905
1771797,1441089,1847718
1772187,1439891,1850013
1772052,1439444,1850906
1772182,1439044,1852075
1771905,1439010,1851701
1771966,1438792,1850557
1771997,1438426,1851324
1771723,1438311,1852725
1772020,1438764,1851919
1772209,1438592,1852156
1772560,1439020,1852010
1772595,1439143,1852106
1772745,1438863,1853253
1773090,1439158,1854444
1773232,1438804,1854871
1772844,1438899,1854203
1773293,1438663,1854798
1773350,1438932,1854655
1773079,1438865,1854477
1773019,1438738,1855370
1773365,1438579,1854823
1773438,1438219,1855348
1773775,1438075,1855058
1773793,1437861,1855151
1773563,1437556,1855382
1773269,1437799,1855930
1773653,1437799,1857780
1773490,1437971,1857762
1774138,1438703,1857887
1773895,1438907,1858030
1774066,1438621,1858910
1774190,1439266,1857603
1774680,1438833,1858626
1774353,1439145,1858299
1774253,1439030,1859796
1774412,1439285,1859049
1774653,1439322,1861059
1774546,1439137,1860931
1774603,1439253,1862949
1774869,1439309,1861939
1775212,1439640,1862444
1775079,1439671,1863859
1775493,1439616,1863809
1775658,1440092,1863132
1775905,1439757,1863023
1775399,1440042,1863500
1775613,1440214,1863089
1775199,1440522,1861212
1775594,1440770,1860052
1775648,1440969,1859630
1776053,1440956,1859494
1775671,1440822,1860431
1775798,1439994,1859184
1775416,1437877,1858328
1775351,1436672,1858479
1775458,1437270,1857877
1774900,1437338,1856427
1774664,1437647,1858087
1774721,1438242,1856677
1774266,1438766,1856872
1774714,1438995,1857127
1774564,1439216,1856930
1774800,1439417,1855619
1774696,1439745,1857953
1775154,1440118,1856298
1775396,1440630,1857826
1775266,1440590,1855962
1775103,1440179,1856098
1775599,1440206,1856244
1775482,1440197,1858145
1775380,1440252,1856043
1775367,1440178,1855279
1775581,1440201,1856172
1775396,1440345,1855271
1775707,1440591,1855813
1775790,1440698,1855787
1775577,1440885,1855589
1775802,1441584,1854564
1776314,1442229,1856394
1776573,1442588,1855606
1776252,1442690,1856114
1776348,1443157,1855595
1776623,1443250,1856071
1776186,1443400,1855394
1776387,1443976,1857256
1776829,1443944,1856055
1776843,1444102,1857124
1776749,1444645,1857493
1776815,1445143,1859065
1777292,1445528,1858552
1777185,1446015,1859406
1777166,1446937,1858373
1777620,1447062,1859557
1777615,1446624,1861196
1777706,1446571,1860313
1777865,1446383,1861231
1777613,1445768,1860979
1777197,1445434,1861581
1777197,1444302,1862361
1777070,1443666,1862692
1777207,1442564,1862539
1777531,1440370,1862891
1777466,1439837,1862416
1777549,1440429,1863231
1777467,1440836,1863726
1777586,1441025,1864556
1777483,1441184,1865249
1777585,1441250,1866621
1777492,1441674,1865798
1777412,1441915,1867086
1777936,1441791,1866941
1777757,1441918,1865981
1778154,1441907,1865963
1777986,1441817,1867331
1778460,1442068,1866666
1778450,1442012,1867889
1778284,1442241,1868904
1778953,1442864,1867814
1778707,1443036,1867871
1778850,1443222,1867841
1778814,1443761,1867645
1778284,1444158,1867929
1778336,1444351,1868517
1778476,1444685,1869109
1778691,1444713,1868355
1778670,1444864,1867474
1778671,1444890,1868298
1778588,1444978,1867535
1778763,1445285,1866495
1778784,1445362,1865690
1779185,1445560,1865525
1779030,1445919,1865062
1779298,1446206,1865033
1779467,1446244,1863933
1779172,1446593,1865672
1779195,1446731,1865452
1779026,1447029,1863986
1778781,1447505,1863722
1778969,1447522,1863239
1778969,1447620,1864071
1779017,1447617,1863322
1779104,1447901,1863796
1779307,1447945,1863619
1779252,1447895,1865418
1779063,1448012,1865414
1779441,1448437,1865454
1779529,1448594,1866188
1779712,1448851,1865674
1779559,1448766,1866907
1779552,1448590,1866834
1779381,1448703,1866131
1779543,1449144,1865821
1779825,1449292,1865808
1780318,1449433,1866206
1780180,1449448,1865908
1780453,1449233,1865839
1780322,1449206,1864630
1780238,1449097,1864301
1780181,1448731,1864625
1780081,1448339,1864301
1779511,1447353,1864728
1779511,1446398,1864792
1779694,1444898,1864792
1779869,1443972,1864703
1779737,1442941,1865419
1779595,1441561,1865507
1779677,1441144,1865564
1779735,1440539,1865321
1779710,1440545,1865230
1779846,1440853,1864122
1779982,1440788,1863811
1780093,1440825,1865432
1780027,1440593,1865684
1780104,1440966,1864950
1780174,1440797,1865737
1780391,1440974,1865531
1780732,1440982,1865280
1780264,1440872,1865010
1780335,1440853,1864752
1780529,1441072,1865131
1780775,1441026,1866293
1780591,1441662,1866924
1780409,1441888,1866894
1780409,1442123,1867029
1780276,1442242,1866398
1780466,1442285,1866589
1780346,1442249,1866705
1780348,1442091,1867911
1780664,1441918,1868301
1780625,1442241,1867884
1780799,1442079,1868048
1780592,1441946,1868306
1781083,1441544,1868185
1781014,1441542,1867905
1781541,1442376,1870620
1782185,1442615,1871198
1781785,1442730,1869722
1781862,1443091,1868916
1781806,1442987,1869660
1781941,1443293,1870053
1781505,1443629,1870681
1781330,1443969,1871053
1781920,1443953,1870226
1781587,1444093,1870372
1781977,1444554,1870572
1781952,1444934,1869486
1782346,1445685,1868419
1782729,1445715,1867644
1782520,1445888,1867403
1782527,1446593,1866194
1782143,1446737,1865659
1782128,1446948,1866463
1782367,1447263,1865361
1782054,1447511,1865145
1782098,1447891,1866041
1782389,1447818,1865352
1782451,1447724,1865092
1782468,1447284,1865521
1781915,1445185,1866106
1781817,1442388,1865697
1782084,1440760,1865665
1781748,1440152,1866012
1781934,1440524,1866181
1782311,1440682,1866558
1782322,1440523,1866731
1782348,1441025,1867018
1782059,1441092,1866398
1782127,1441187,1866962
1782104,1441158,1866195
1781899,1441122,1866138
1782282,1441642,1865622
1782290,1442252,1866361
1782569,1442458,1868090
1782631,1442197,1865993
1782645,1442164,1867719
1782826,1442153,1868126
1782885,1442094,1867007
1783118,1442370,1867078
1782793,1442596,1867524
1782514,1442412,1867351
1782753,1443053,1867136
1783076,1443820,1868725
1782965,1444293,1868845
1783157,1444915,1867832
1783090,1445546,1868966
1783120,1445638,1869268
1783450,1445683,1869962
1783576,1445454,1869226
1783419,1445426,1870206
1783583,1445747,1870280
1784014,1445523,1870786
1783532,1445666,1869561
1783820,1445685,1869662
1783773,1445557,1871172
1783678,1445837,1869675
1783794,1445869,1871600
1784257,1446091,1870534
1784291,1446297,1870605
1784388,1446962,1869933
1784531,1447089,1870047
1784007,1445664,1870575
1783953,1445174,1871129
1784206,1444307,1871237
1784094,1443310,1871796
1783834,1441514,1872145
1783727,1440768,1871575
1783980,1440009,1872185
1784046,1439842,1873146
1784095,1439851,1870991
1783973,1439331,1871882
1783877,1439451,1871602
1783703,1439755,1872372
1784164,1439784,1873516
1784517,1440133,1871715
1784430,1439879,1873136
1784221,1440021,1872092
1784210,1439935,1872441
1784302,1440279,1871111
1784359,1440094,1872024
1784413,1440748,1871581
1784274,1440871,1872629
1784274,1440922,1871422
1784112,1441090,1871425
1784345,1441357,1871024
1784259,1441408,1871831
1784322,1441471,1870139
1784503,1441128,1871458
1784493,1441086,1871087
1784408,1441535,1871058
1784508,1441122,1869499
1784521,1441376,1870427
1784306,1441060,1871082
1784394,1441021,1870842
1784364,1440888,1870146
1784333,1441197,1872006
1784675,1441193,1870960
1785022,1441362,1872257
1784700,1441396,1871301
1784658,1441569,1870991
1784737,1441721,1871936
1784995,1442093,1872856
1785145,1442295,1873945
1785036,1442698,1872653
1784873,1442703,1873940
1784873,1442905,1874736
1785139,1443062,1875198
1785128,1443031,1875525
1785065,1443143,1875988
1785059,1443178,1875908
1785069,1442993,1878079
1785330,1443410,1878089
1785300,1443594,1879093
1785481,1443400,1877753
1785587,1443650,1878554
1785688,1443561,1877698
1785401,1443409,1878391
1785467,1443378,1878088
1785309,1443612,1879274
1785789,1443558,1879216
1786217,1443590,1879673
1786371,1443583,1879022
1786587,1443154,1879069
1786567,1443219,1879093
1786206,1443259,1879576
1786492,1443409,1880765
1786120,1443733,1880822
1786120,1443649,1882255
1785857,1443937,1881759
1786055,1443831,1885515
1786366,1443893,1885317
1786224,1443663,1887911
1786422,1443608,1890664
1786382,1443815,1890906
1786713,1443630,1891972
1786610,1443858,1892541
1786996,1443168,1893247
1786364,1440693,1894299
1786263,1438257,1894299
1786388,1436764,1894005
1786817,1436006,1894845
1786805,1436250,1895362
1787057,1435967,1896467
1786628,1436106,1897215
1786995,1436042,1898452
1786895,1436450,1900265
1786877,1436356,1899352
1786508,1436026,1899365
1786633,1436039,1900179
1786537,1436005,1901696
1786887,1435990,1900358
1787125,1435785,1900653
1786600,1435549,1900515
1786676,1435024,1900774
1786790,1435582,1901757
1787053,1435767,1901269
1787509,1435817,1901761
1787363,1435988,1901671
1787285,1435739,1900708
1787234,1435600,1899798
1787392,1435833,1899797
1787298,1435942,1898648
1787328,1436032,1899270
1787328,1435558,1897873
1787243,1435326,1898068
1787047,1435318,1898517
1787326,1435253,1899564
1787605,1434914,1898490
1787527,1434568,1898386
1787534,1434935,1897973
1787636,1434960,1898401
1787672,1435075,1899186
1787816,1435230,1900632
1788117,1435167,1901252
1787887,1435464,1899974
1788378,1435921,1899804
1788434,1435713,1899452
1788425,1435516,1899484
1788531,1436069,1898723
1788593,1435989,1898950
1788358,1436025,1898421
1788411,1436099,1897824
1788239,1436377,1899267
1788407,1436118,1898239
1788304,1436363,1897444
1788947,1436565,1897210
1788354,1437115,1899245
1788957,1437609,1898247
1789229,1437735,1899507
1788800,1437783,1898828
1788982,1437892,1898555
1789204,1437652,1897226
1789206,1437458,1898056
1788861,1436793,1897341
1788581,1435745,1897989
1788609,1435116,1896885
1788665,1434322,1898705
1788542,1433651,1897364
1788478,1432166,1897932
1788079,1431622,1897576
1788820,1431675,1898218
1788332,1431811,1896816
1787991,1431233,1896784
1788358,1431455,1897949
1788555,1431469,1897539
1788785,1431627,1898742
1788022,1431838,1896221
1788476,1431777,1897121
1788390,1431813,1896358
1788674,1432055,1897518
1788518,1431780,1897982
1788800,1431971,1896746
1788653,1431984,1898085
1788547,1431943,1897862
1788773,1432118,1897566
1788940,1432094,1897680
1789028,1432373,1897251
1788776,1432548,1897888
1788743,1432887,1897719
1788519,1432987,1899994
1788618,1433162,1898903
1788840,1433450,1899332
1788897,1433742,1900807
1788838,1433731,1898983
1788900,1433779,1898711
1789339,1434390,1898718
1789223,1434544,1899044
1789256,1434313,1897785
1789317,1434622,1898251
1789251,1434705,1896708
1789424,1434883,1897137
1789324,1434908,1897202
1788868,1434885,1896616
1788890,1435063,1896113
1789385,1435063,1895687
1789232,1435244,1894133
1789401,1435380,1892874
1789280,1435342,1892148
1789459,1435683,1891734
1789612,1435809,1890749
1789593,1435972,1892439
1789853,1435695,1889921
1789789,1435959,1889168
1789901,1436074,1889629
1789765,1436329,1888716
1790041,1436701,1888419
1789675,1436021,1887585
1789544,1435737,1886794
1789642,1435075,1887048
1789797,1434560,1886915
1789218,1433740,1886488
1788942,1432824,1886482
1789008,1432257,1885086
1789202,1431421,1885202
1789148,1431221,1885349
1788957,1430677,1885360
1788982,1430373,1885685
1788708,1430257,1886530
1788757,1430488,1885283
1788918,1430283,1885497
1789348,1430679,1885163
1789317,1430614,1886385
1789285,1430482,1886383
1789124,1430516,1885211
1789353,1430693,1885464
1789267,1430643,1885864
1788847,1430946,1885666
1788724,1430739,1885282
1788724,1430955,1884861
1788585,1430954,1884497
1788616,1431308,1885770
1788802,1431311,1887088
1788640,1431160,1887088
1788463,1431228,1886208
1789071,1431278,1885935
1789116,1431351,1886694
1789258,1431405,1887318
1788868,1431571,1888628
1789194,1431193,1889243
1788865,1430934,1889030
1788860,1431097,1888099
1788812,1430982,1888472
1789296,1430875,1890191
1789486,1430847,1891111
1789295,1430657,1891395
1789434,1430573,1892131
1789514,1430590,1891709
1789638,1430569,1892455
1789647,1430900,1893343
1789236,1431169,1893190
1789236,1431171,1892128
1789469,1431176,1893195
1789369,1431571,1891866
1789553,1431665,1892470
1789495,1431641,1890898
1789572,1431319,1889855
1789888,1431761,1890041
1789781,1431850,1889011
1789962,1431806,1892139
1790417,1431732,1889525
1790113,1432048,1891020
1790312,1432499,1889494
1790889,1432664,1891409
1790564,1432534,1890430
1790641,1432796,1890561
1790627,1432884,1892190
1790393,1433396,1892116
1790423,1433199,1892294
1790544,1433523,1893146
1790441,1433885,1893479
1790817,1434002,1894261
1790930,1433894,1894443
1790881,1433650,1893446
1790954,1432933,1892482
1791070,1433489,1892879
1790990,1433565,1890801
1791269,1433519,1891297
1791384,1433380,1889440
1790788,1432912,1886588
1790299,1430751,1886526
1790445,1428563,1886081
1789869,1427477,1887276
1790198,1427560,1886005
1790424,1427811,1886820
1790057,1428015,1886123
1790650,1427537,1888636
1790426,1427387,1887931
1789802,1427512,1889144
1790453,1427241,1890324
1790484,1427953,1890695
1790849,1427986,1892134
1790642,1427951,1891963
1790511,1428141,1891785
1790788,1427847,1892802
1790415,1427887,1893054
1790202,1427626,1891008
1790375,1427749,1890580
1790520,1427505,1889893
1790625,1427985,1888110
1790487,1427842,1889672
1790429,1428046,1888301
1790810,1428282,1888231
1790787,1428985,1888415
1791087,1429038,1887745
1791519,1428902,1890162
1791424,1429225,1891816
1791361,1429352,1892414
1791668,1429208,1892529
1791153,1429507,1893346
1791088,1429903,1894437
1791299,1429681,1895194
1791343,1429873,1895042
1791665,1429985,1896281
1791466,1430098,1895145
1791719,1430733,1895792
1791529,1431104,1896217
1791764,1430934,1896590
1791972,1431202,1895974
1791997,1431224,1894666
1791716,1431493,1894238
1791712,1431530,1894997
1792117,1432015,1894887
1792114,1431930,1893921
1792099,1431856,1894050
1792041,1430741,1894312
1791951,1428319,1893911
1791691,1425619,1893824
1791078,1424231,1894474
1791343,1424628,1893918
1791193,1424431,1894629
1791351,1424464,1894446
1791522,1424693,1893771
1791442,1424585,1892866
1791310,1424295,1892233
1791204,1424243,1891898
1791220,1424241,1891839
1791086,1424396,1890023
1790911,1423871,1889505
1790805,1424153,1888730
1791047,1424238,1888738
1791105,1424423,1886454
1791377,1424474,1886862
1791511,1424540,1885923
1791529,1424252,1884874
1791175,1424371,1886113
1791370,1424426,1885082
1791290,1424942,1886230
1790904,1424227,1884382
1791199,1424282,1884496
1791280,1424143,1884121
1791515,1424023,1883744
1791100,1424172,1883797
1790824,1424185,1884034
1791133,1424064,1882549
1791079,1424370,1881885
1791173,1424682,1882017
1791049,1424608,1884163
1791094,1424575,1884085
1790990,1424923,1883655
1791412,1424970,1883536
1791579,1425142,1883732
1791635,1425206,1883502
1791686,1425344,1883997
1791479,1425136,1883379
1791470,1425554,1883758
1791694,1425591,1883533
1791471,1425680,1884314
1791186,1426224,1882937
1791113,1426320,1882318
1791113,1426305,1883605
1791511,1426484,1883493
1791435,1426665,1882972
1791514,1426643,1882526
1791451,1426488,1882830
1791683,1426370,1882396
1791342,1426855,1881956
1791325,1426879,1882089
1791551,1427144,1881299
1791686,1427600,1882158
1791494,1427274,1881983
1791603,1427118,1882384
1791576,1427210,1881093
1791477,1427505,1881690
1791589,1427611,1882335
1791917,1427981,1883303
1791598,1428053,1882416
1791692,1428189,1882588
1791689,1428526,1882507
1791552,1428940,1882833
1791839,1429170,1883034
1791561,1429505,1884807
1791561,1429260,1883476
1791269,1429364,1883707
1791360,1429467,1883234
1791548,1429927,1884116
1791509,1430033,1885420
1791414,1430275,1885139
1791463,1430650,1884492
1791888,1430992,1884187
1791705,1431254,1883527
1791812,1431238,1884760
1792107,1431166,1884022
1792195,1430658,1884965
1791982,1430569,1883455
1791822,1430212,1883922
1791698,1429924,1883678
1792015,1429039,1884076
1791835,1428106,1885079
1791436,1426794,1882476
1791567,1425685,1880395
1791295,1425156,1881229
1791158,1424561,1879864
1791142,1424190,1879507
1790752,1423903,1879393
1790752,1423611,1879133
1790823,1423691,1879445
1790833,1423589,1878933
1790875,1423961,1877616
1790776,1423590,1877172
1790826,1423499,1876623
1790728,1423863,1877750
1790609,1424109,1877275
1790513,1424007,1877018
1790718,1424049,1876984
1790536,1424360,1878077
1790527,1423922,1878110
1790785,1424195,1877526
1790885,1425082,1877253
1790995,1425081,1878049
1791066,1424600,1877564
1791029,1424694,1878006
1791215,1424211,1877067
1790857,1424168,1876556
1790998,1424110,1878183
1790858,1424487,1877919
1790742,1424568,1877774
1790680,1424421,1877765
1790883,1424719,1878359
1790820,1424897,1877830
1790923,1425000,1877201
1791224,1424824,1877867
1791039,1424975,1879151
1791613,1425920,1878832
1791046,1425380,1878298
1791071,1425583,1879858
1791280,1425914,1880502
1791941,1425947,1880447
1792074,1426216,1881233
1791632,1426531,1880907
1791433,1426289,1880453
1791257,1426563,1881042
1791777,1426341,1881402
1791333,1426619,1880496
1792130,1426452,1881425
1791760,1426974,1881456
1792167,1427921,1882909
1792330,1428028,1882903
1792298,1427546,1882597
1792196,1427850,1883820
1792210,1427437,1883126
1792179,1426988,1881168
1791861,1426294,1880631
1791455,1425472,1882018
1791368,1424338,1882576
1791468,1423415,1882185
1791478,1422889,1882899
1791301,1422511,1885707
1791478,1421762,1883145
1791196,1421292,1883677
1790909,1421696,1883175
1791256,1421482,1883015
1791787,1421637,1882776
1791675,1421727,1882753
1791400,1421382,1883555
1791476,1421650,1884596
1791579,1421716,1884585
1791249,1422067,1884685
1791523,1422161,1883918
1791497,1422048,1883756
1791642,1422077,1883722
1791628,1422255,1883732
1791233,1422125,1881796
1791904,1421538,1880657
1791738,1421359,1879203
1792164,1421555,1878502
1791800,1421905,1879381
1791560,1422203,1878264
1792283,1422429,1879320
1792354,1422484,1876478
1792083,1422747,1876133
1792494,1422540,1874637
1792134,1422477,1875897
1792097,1422637,1874598
1792218,1423032,1876400
1792221,1422865,1876215
1792446,1423107,1875009
1792425,1423746,1874800
1792669,1423661,1876289
1792558,1424065,1875646
1792661,1424236,1874830
1792451,1424282,1875427
1792484,1424434,1875314
1792443,1424583,1875664
1792750,1424689,1877255
1792526,1424677,1877350
1792544,1424849,1878088
1792573,1424999,1877492
1792925,1425457,1878275
1793073,1424862,1878677
1792759,1423485,1878506
1792306,1420892,1878755
1792428,1418992,1878236
1792204,1418961,1878227
1792189,1418399,1877824
1791818,1418390,1878135
1791753,1418430,1877969
1792071,1418656,1878343
1791537,1418615,1877309
1791553,1418504,1877238
1791411,1418328,1877791
1791777,1418774,1878809
1791778,1418931,1879088
1791978,1418841,1880188
1791697,1418908,1879492
1791730,1418807,1879361
1792086,1418854,1879674
1791819,1418802,1879856
1791893,1418601,1879820
1792008,1418505,1879803
1791985,1418456,1880447
1791881,1418652,1881065
1791873,1418793,1882396
1791555,1418665,1882117
1791534,1418774,1883045
1791753,1419159,1883689
1791866,1419112,1885698
1792349,1419287,1885391
1792415,1419331,1886391
1792420,1419162,1886125
1792509,1419263,1885765
1792518,1419415,1885198
1792512,1419665,1886098
1791911,1420108,1886169
1791911,1420163,1887150
1791985,1420419,1886034
1791918,1420256,1886764
1792148,1420594,1886270
1792131,1420480,1886219
1792247,1420394,1885512
1792158,1420645,1886018
1792276,1420581,1885178
1792225,1420633,1885024
1792355,1420995,1884492
1792499,1421028,1883933
1792170,1420966,1883390
1791993,1420908,1882769
1792288,1421179,1882556
1792406,1421263,1884275
1792679,1421457,1883297
1792781,1421351,1883530
1792499,1421789,1884182
1792469,1422006,1884273
1792712,1422396,1884370
1792595,1422710,1883907
1792406,1422931,1884220
1792265,1423174,1884104
1792265,1422728,1883256
1792476,1422573,1882450
1792339,1422332,1883176
1792662,1422114,1884086
1792382,1421397,1884067
1792300,1420555,1883951
1791887,1419404,1884032
1791673,1418706,1884235
1791554,1418179,1883704
1791531,1417626,1884832
1791655,1417293,1884731
1791605,1416763,1884966
1791186,1416635,1885103
1791262,1416557,1884984
1791587,1416710,1884909
1791755,1416700,1884525
1791518,1416815,1884816
1791514,1416610,1884547
1791448,1416611,1884065
1791085,1416383,1884069
1790985,1416401,1884852
1791373,1417043,1884088
1791608,1417018,1883121
1791409,1416901,1883704
1791400,1417162,1882955
1791052,1417223,1883250
1790921,1417208,1885331
1791324,1417011,1885231
1790862,1417179,1885231
1791028,1417529,1885087
1791151,1416882,1884119
1791255,1417010,1883804
1791418,1417608,1883291
1791076,1417615,1883335
1791396,1417366,1883248
1791801,1417746,1883093
1791627,1417874,1884221
1791464,1418163,1883622
1791316,1418208,1884366
1790837,1418269,1884575
1791392,1418154,1884841
1791453,1418581,1883631
1791530,1418396,1884525
1791409,1418300,1884618
1791515,1418303,1884639
1791586,1418381,1884545
1791863,1418534,1884778
1792193,1418534,1885994
1791963,1418492,1885724
1791833,1418265,1884514
1792160,1418921,1884604
1792261,1418749,1883832
1792363,1418909,1883108
1792080,1418514,1882917
1792209,1418456,1883673
1792162,1418284,1883091
1792294,1418379,1883634
1792208,1417375,1881779
1791876,1416511,1880484
1791690,1416401,1881035
1791608,1415989,1879184
1791474,1415191,1879843
1791102,1414698,1878814
1791104,1414604,1877200
1791025,1414505,1877619
1791191,1414486,1878815
1791672,1414225,1879033
1791230,1414205,1879150
1790556,1414438,1878379
1791079,1414554,1877161
1791012,1414640,1878321
1790910,1414959,1877462
1791166,1414947,1876439
1791057,1414769,1876512
1790911,1415034,1876057
1790610,1414840,1876036
1790744,1414738,1876454
1791124,1414725,1877066
1791250,1414794,1877715
1791020,1414419,1877155
1791166,1415033,1877109
1791229,1415327,1876886
1791224,1415038,1877310
1791187,1415164,1878282
1791496,1415257,1878089
1791279,1415525,1877418
1791259,1415938,1877740
1791395,1415652,1879134
1791266,1415493,1879917
1791257,1415771,1878322
1791335,1415897,1878131
1791293,1415668,1879418
1791635,1415911,1878231
1791503,1416370,1878759
1791737,1416919,1878978
1791785,1416634,1879353
1791845,1416792,1879326
1791841,1416467,1879352
1791568,1416669,1880116
1791362,1416261,1881405
1791074,1415627,1881067
1790859,1415399,1880544
1790596,1413519,1880820
1790562,1412624,1881738
1790456,1412536,1882476
1790118,1412517,1881831
1789993,1412395,1882127
1789562,1412243,1882654
1789959,1412341,1882301
1789854,1412477,1881845
1789532,1412740,1882400
1789404,1412781,1882782
1789577,1412770,1885156
1789392,1412914,1883609
1789482,1412931,1883305
1789539,1412609,1883234
1789331,1412458,1884715
1789775,1412850,1884498
1789371,1412656,1883264
1789301,1413172,1885188
1789497,1413685,1885616
1789339,1413579,1886558
1789636,1413458,1885857
1789859,1413935,1885741
1789278,1414015,1884716
1789110,1414067,1884017
1789237,1414086,1883976
1789317,1414183,1884640
1789381,1414661,1884812
1789211,1414801,1885850
1789095,1414728,1884764
1789117,1414765,1884075
1789505,1414999,1884527
1789578,1415920,1885218
1789365,1416479,1881858
1789449,1416770,1881334
1789562,1417458,1881213
1789355,1417447,1880967
1789405,1417501,1879646
1789362,1418083,1877858
1789125,1418417,1877515
1789122,1418355,1877673
1789250,1418479,1877500
1789091,1418446,1876782
1789342,1418459,1878362
1789333,1418338,1878138
1788986,1417763,1879182
1788759,1417237,1878486
1788796,1416798,1877991
1788535,1416230,1878760
1788722,1416078,1880421
1788588,1415917,1878495
1788282,1415343,1879497
1788145,1415253,1879249
1788402,1415237,1880068
1788154,1415498,1879325
1787734,1415371,1880135
1787734,1415359,1879923
1787419,1415500,1881017
1787330,1415481,1879978
1787429,1415622,1880715
1787706,1415490,1880032
1787290,1415216,1879896
1787310,1415351,1879061
1786937,1415471,1877793
1787073,1415671,1878947
1786914,1415832,1879140
1786954,1416205,1879155
1787067,1416123,1878165
1786877,1415857,1877994
1787134,1416039,1878395
1787362,1415984,1879070
1787672,1416003,1878835
1787796,1416068,1878861
1787650,1416055,1877843
1787483,1416003,1878602
1787527,1416348,1878122
1787792,1416231,1878623
1787178,1416572,1878274
1787220,1416434,1877633
1787220,1416555,1877325
1787097,1416392,1877733
1787120,1416635,1878132
1787118,1416518,1878570
1787257,1416600,1878020
1786933,1416208,1878012
1787087,1416609,1879277
1787094,1417216,1880392
1787270,1417196,1881370
1787021,1417757,1880731
1787279,1418018,1880531
1787049,1418678,1880019
1787602,1419230,1880976
1787220,1418844,1879921
1787509,1418857,1880520
1787584,1418695,1880393
1787753,1419044,1881140
1787958,1419185,1880688
1787899,1419331,1880408
1787213,1419695,1880540
1787750,1419294,1880740
1787545,1419577,1881081
1787963,1419818,1880879
1788269,1418972,1881970
1787835,1417442,1882208
1787353,1416264,1880741
1787494,1415405,1881268
1787364,1415710,1880558
1787341,1415451,1880895
1787062,1415036,1880609
1786792,1414816,1880067
1786533,1415086,1881147
1786487,1415146,1880217
1786679,1415083,1880777
1786627,1415254,1879255
1786454,1414674,1878100
1786087,1414818,1877841
1786363,1415031,1877625
1786186,1414972,1878009
1786388,1414508,1877928
1786313,1414496,1877484
1786342,1414374,1879376
1786331,1414290,1879289
1785986,1414647,1879486
1785795,1414381,1879385
1785987,1414476,1878663
1786047,1414361,1878952
1786180,1414483,1878615
1785858,1414982,1879824
1786367,1415356,1879745
1786432,1415412,1879587
1786496,1415394,1879446
1786648,1415501,1880166
1786697,1415499,1880331
1786317,1415799,1880737
1786591,1415758,1880530
1786713,1415583,1881163
1786674,1415887,1880817
1786669,1415763,1881560
1786548,1415727,1881812
1786707,1415946,1884308
1786687,1416538,1882750
1786640,1416028,1882767
1786151,1415166,1882024
1785475,1413804,1882137
1785743,1413816,1882593
1786024,1413332,1883684
1785943,1413100,1883854
1785587,1412433,1884715
1785144,1412173,1885146
1785089,1412405,1884457
1784897,1412376,1884758
1784813,1411973,1883768
1784455,1411668,1884795
1784043,1411743,1885089
1783517,1411572,1886723
1783616,1411668,1886557
1783704,1412079,1886798
1783618,1411643,1886758
1783381,1411524,1886549
1783307,1411441,1887979
1783511,1411420,1888480
1783005,1411097,1887878
1783014,1410960,1887719
1782786,1411010,1887745
1782896,1411349,1887703
1782946,1411617,1887757
1783054,1411587,1888211
1782626,1411810,1888634
1782881,1411845,1888106
1783262,1411746,1889026
1782897,1411968,1889401
1782642,1411583,1889035
1782878,1411832,1889250
1782891,1411785,1888656
1782759,1411916,1889498
1782846,1412158,1889668
1782781,1412192,1889450
1782660,1411864,1890436
1782971,1412100,1890129
1783129,1411884,1888722
1783180,1411983,1888397
1783190,1412384,1888312
1783540,1412719,1888107
1783780,1412437,1887716
1783480,1412845,1887897
1783219,1412846,1887035
1783299,1413084,1885226
1783325,1413313,1884297
1783230,1413248,1884231
1783325,1413180,1884416
1783601,1413118,1882375
1783513,1413088,1882455
1783552,1413243,1882541
1783470,1413075,1882165
1783360,1413190,1881513
1783339,1413189,1881610
1783488,1413284,1881630
1783830,1412866,1883496
1783889,1412734,1883231
1783677,1412119,1882586
1783461,1411572,1882787
1783204,1411294,1885093
1782772,1411064,1884659
1782508,1411130,1883631
1781955,1410861,1883304
1781955,1410578,1884012
1781793,1410098,1883916
1781636,1409815,1885648
1781569,1409716,1885359
1781292,1409365,1885238
1781225,1409026,1886492
1780510,1409458,1885250
1780502,1409534,1886401
1780387,1409555,1884788
1780210,1409337,1884109
1779940,1409267,1883834
1779783,1408841,1883826
1779603,1408984,1882888
1779436,1408737,1884530
1779403,1408789,1884264
1779456,1408904,1884460
1779469,1408998,1884555
1779346,1408754,1885471
1779352,1409048,1885184
1779322,1409100,1884448
1779095,1409502,1883924
1778875,1409531,1883782
1778875,1409430,1885511
1778696,1409546,1885148
1778540,1409250,1884917
1778561,1409045,1885222
1778732,1408962,1885593
1778771,1408624,1885793
1778271,1408851,1885879
1778045,1409148,1885779
1777957,1408594,1885878
1777961,1409042,1886438
1777686,1409147,1885642
1777335,1409593,1886101
1777462,1409874,1886488
1776991,1409984,1887339
1776989,1410638,1886822
1777146,1410382,1887171
1777387,1410640,1888859
1777162,1410471,1886725
1776669,1410226,1887665
1777004,1410403,1888727
1776944,1410681,1889047
1776988,1410506,1888348
1776791,1409912,1888876
1776661,1410492,1889629
1777061,1410671,1889040
1777018,1410802,1890228
1777202,1411011,1890753
1777036,1410820,1889327
1777165,1410683,1889613
1777069,1410710,1889511
1776931,1411041,1890530
1776638,1411447,1890346
1776325,1411684,1889981
1776663,1412277,1889826
1776854,1411864,1888417
1776805,1411831,1888071
1776670,1411781,1886709
1776525,1411635,1886353
1776286,1411330,1884840
1775385,1410013,1884735
1774596,1408759,1884687
1774411,1408775,1883383
1773318,1408458,1883263
1772847,1408435,1883551
1773332,1408382,1882198
1772987,1408202,1882172
1772702,1408378,1883041
1772438,1408070,1883622
1771747,1407754,1883558
1771683,1407837,1884408
1771219,1408035,1882631
1771048,1408243,1883560
1770910,1408168,1883183
1770064,1407951,1883735
1770146,1408089,1882790
1770034,1408096,1884838
1770043,1408258,1883968
1769647,1408482,1884821
1769170,1408605,1883346
1769377,1408580,1882500
1769413,1408712,1883966
1769204,1408823,1884293
1769196,1409382,1884123
1769231,1409745,1883959
1768837,1409572,1884103
1768613,1409959,1884486
1768926,1410023,1885571
1768931,1410199,1884845
1768525,1410446,1884237
1768361,1410300,1884979
1768455,1410463,1885717
1768309,1410483,1884740
1768264,1410737,1885782
1768053,1411222,1885499
1768090,1411896,1886642
1768102,1411967,1886240
1767698,1411637,1887750
1767738,1411538,1886133
1767931,1411086,1886790
1767906,1411004,1886518
1767303,1409902,1887298
1766508,1409407,1886157
1765893,1409034,1887647
1765446,1409024,1887927
1764768,1409055,1888444
1764402,1409192,1889740
1763777,1408754,1889175
1763320,1408968,1888912
1763686,1408843,1888521
1763691,1408884,1889370
1763535,1409301,1888862
1762860,1409237,1890352
1763173,1409372,1889695
1762886,1409257,1890301
1763290,1409281,1890480
1762976,1409193,1890533
1762875,1408740,1890297
1762568,1408535,1890214
1763029,1408665,1891124
1762743,1408512,1890741
1762953,1408510,1889786
1762981,1408340,1890075
1762908,1408285,1890811
1762499,1408213,1891646
1762714,1408389,1891264
1762718,1408524,1891557
1762519,1408505,1890790
1762254,1408915,1891328
1762254,1408755,1891115
1762362,1408878,1891245
1762261,1409090,1891060
1762342,1409581,1890398
1762077,1409347,1891414
1762079,1409328,1890621
1762060,1409779,1891526
1762352,1409879,1889561
1762115,1409849,1890139
1762229,1409999,1887770
1762256,1409994,1888137
1762181,1409860,1887069
1761789,1410060,1886905
1762078,1410233,1886978
1761998,1410515,1887995
1762475,1410723,1886766
1762302,1410924,1886841
1762452,1410596,1886240
1762386,1410972,1886727
1762491,1411091,1886964
1762194,1411499,1887222
1762094,1411831,1888036
1761851,1411794,1886905
1761851,1412223,1887724
1761855,1412360,1887602
1762511,1412404,1888100
1762096,1412733,1887308
1762026,1412881,1887449
1761794,1412982,1887429
1762286,1413010,1887729
1762141,1412690,1888108
1762563,1412863,1888528
1762513,1412909,1888802
1762787,1413792,1889690
1762863,1414185,1890117
1763132,1413925,1889927
1763270,1413959,1890115
1763154,1413381,1888935
1762818,1413196,1888744
1762814,1413004,1889880
1762174,1412751,1890751
1761710,1412264,1890213
1761632,1411966,1889794
1761614,1411876,1889746
1761510,1411873,1890560
1761414,1411158,1890944
1760714,1411463,1891492
1760942,1411966,1892594
1760771,1411576,1891559
1760930,1411027,1891641
1760705,1411978,1891938
1760794,1411636,1892016
1760873,1411676,1892598
1760666,1411880,1891608
1760255,1412256,1892007
1760643,1412145,1892705
1760266,1412118,1893027
1760694,1412039,1893416
1760341,1412297,1894140
1761031,1412873,1894810
1760668,1412853,1893946
1760435,1413142,1894471
1760687,1413711,1895081
1760753,1413815,1895262
1761524,1413942,1896083
1761260,1414177,1896370
1760902,1414519,1895663
1760896,1414240,1894586
1760918,1414260,1895618
1760832,1414506,1896190
1761209,1414587,1895908
1760854,1414606,1895623
1760766,1414882,1895512
1761016,1414998,1895458
1761359,1415309,1895900
1761562,1415420,1895402
1761746,1415297,1895006
1761696,1415221,1894975
1761645,1415313,1895363
1762034,1415829,1894542
1761992,1415881,1894368
1762481,1416103,1894291
1762438,1416281,1893144
1762387,1416191,1893098
1762607,1416167,1891848
1762621,1415902,1891089
1762834,1415919,1890909
1763040,1415979,1890115
1763094,1416627,1889554
1762753,1415063,1889693
1762806,1413896,1889838
1762633,1413212,1890304
1761959,1412691,1889833
1762316,1413192,1889214
1762575,1412925,1889117
1762784,1413050,1890400
1762353,1413100,1889299
1762059,1413397,1890331
1762107,1413229,1890949
1762297,1413291,1891934
1762215,1413138,1892235
1762244,1413158,1891260
1762329,1413241,1892069
1762552,1413455,1891528
1763086,1413731,1891296
1763010,1413821,1890725
1762756,1413161,1890531
1763082,1413352,1891481
1763363,1413295,1892672
1763267,1413457,1892721
1763219,1413607,1891918
1763154,1413351,1891623
1763212,1413485,1892681
1763495,1413462,1893069
1763418,1413620,1892802
1763478,1413226,1892488
1763387,1413224,1893744
1763344,1413427,1892885
1763137,1413517,1893952
1763310,1414177,1893695
1764114,1414583,1895401
1764115,1414042,1894835
1764327,1413904,1893598
1764812,1413832,1894079
1764882,1413755,1894223
1765249,1413757,1894555
1764972,1413955,1895173
1764890,1413749,1895154
1765081,1413731,1895494
1765162,1413470,1895942
1765308,1413636,1895872
1765358,1413481,1895349
1765623,1413559,1894387
1766355,1413447,1894693
1765806,1412423,1895508
1765467,1410625,1894993
1765562,1410361,1895575
1765534,1410017,1895849
1765487,1409743,1895773
1765547,1409673,1895271
1765228,1409589,1895886
1764637,1409519,1895905
1764679,1409821,1894969
1764389,1409999,1895967
1764261,1409525,1895940
1764197,1409453,1895434
1764277,1409714,1894784
1764182,1409787,1896380
1764052,1409466,1893830
1764378,1409501,1894401
1764660,1409439,1895358
1764702,1409433,1893517
1765036,1409254,1892758
1764655,1409107,1891418
1764822,1408987,1891759
1764924,1409089,1890955
1764595,1409115,1889273
1764399,1409083,1888900
1764617,1409035,1888957
1764720,1408853,1888742
1764888,1408812,1889478
1764626,1408554,1888460
1764620,1408246,1889490
1764612,1408306,1889430
1764567,1408340,1890051
1764822,1408421,1888986
1765112,1408596,1888598
1765022,1408752,1887866
1764975,1408490,1888611
1764779,1408834,1888702
1764760,1409018,1888097
1764857,1409223,1886771
1764796,1409389,1887863
1764796,1409203,1887484
1764756,1409367,1887472
1765094,1409261,1889237
1765360,1409296,1889595
1765295,1409518,1888754
1765356,1409116,1888170
1765465,1409317,1888929
1765694,1409039,1889317
1765664,1409164,1889506
1765640,1408978,1888404
1766282,1408844,1888211
1766142,1409186,1887974
1766531,1409521,1889584
1766472,1410017,1890059
1766451,1410024,1890649
1766815,1410288,1890360
1767355,1410189,1892147
1766892,1410321,1891756
1767492,1409614,1892301
1767644,1409447,1892411
1766714,1408658,1892176
1765810,1408126,1892531
1765633,1408136,1894213
1765551,1407890,1894180
1765795,1407926,1895358
1765604,1408393,1895291
1765525,1408057,1895291
1765421,1408239,1896100
1764668,1408432,1895169
1764798,1408881,1895494
1764881,1409076,1894938
1764626,1409385,1895390
1764827,1409484,1895159
1765188,1409642,1896078
1765278,1409493,1895785
1765148,1410539,1897838
1765200,1410653,1896670
1765405,1410562,1896409
1765501,1410831,1896031
1765457,1410535,1896023
1765448,1410896,1895100
1765579,1411133,1894685
1765555,1411198,1895187
1765551,1411538,1895401
1765892,1411719,1895570
1765808,1411663,1896807
1765782,1412069,1896353
1765962,1411924,1895321
1766508,1412027,1895487
1766853,1412625,1895097
1767154,1412626,1893606
1767262,1412846,1894062
1767685,1413282,1893792
1767538,1413110,1893326
1767784,1413223,1893112
1767479,1413495,1892209
1767984,1413676,1891125
1768448,1413376,1890159
1768408,1413231,1889689
1768655,1413298,1889610
1768572,1412045,1889374
1768346,1410830,1888863
1768408,1409708,1888263
1768293,1409364,1887479
1768336,1410006,1887783
1768197,1409431,1886130
1767972,1409093,1885910
1768115,1409602,1884872
1768167,1409436,1886228
1768782,1409063,1885640
1768557,1408567,1885100
1768522,1408465,1885491
1768736,1408831,1884888
1768635,1408672,1886373
1768808,1408044,1885734
1768339,1407679,1886089
1768817,1407908,1887319
1768971,1407914,1887471
1768826,1408091,1886545
1768602,1407951,1887164
1769040,1407603,1886041
1768823,1408107,1886187
1769058,1408080,1887328
1768582,1407826,1886550
1768665,1408240,1885844
1768649,1408368,1886079
1768901,1408565,1886264
1769101,1408721,1885150
1769666,1408812,1884549
1769313,1408946,1885898
1769415,1408923,1885424
1769610,1409396,1885108
1769787,1409196,1884399
1770143,1409132,1883907
1770093,1409012,1884363
1770044,1408927,1883181
1770168,1408569,1884165
1770417,1408692,1882622
1770574,1408322,1881557
1770709,1407884,1879146
1770735,1407782,1876575
1770470,1407219,1872370
1770584,1406752,1870242
1770459,1406257,1867988
1770804,1405686,1867000
1770817,1405087,1864188
1770422,1404738,1863285
1770212,1404082,1862501
1769982,1403973,1863425
1769905,1403891,1862917
1769611,1404083,1862427
1769542,1404028,1862134
1769542,1403797,1862151
1769195,1403805,1861542
1769120,1403770,1862463
1769127,1403841,1863698
1768989,1403872,1864995
1769034,1403583,1865363
1768518,1403771,1865272
1768807,1403511,1865587
1768792,1403768,1866082
1768747,1403846,1868102
1768683,1403779,1868758
1768686,1403510,1868880
1768295,1403455,1869237
1768474,1403419,1869016
1768479,1403790,1869899
1768771,1403681,1870531
1768933,1403617,1869643
1768926,1403411,1870661
1768624,1403434,1870996
1768843,1403222,1872304
1768953,1403369,1872243
1768625,1403427,1870736
1768420,1403242,1872019
1768420,1403096,1871920
1768502,1403177,1871497
1768306,1402932,1871098
1768613,1402879,1870465
1768742,1402279,1871481
1768819,1402272,1870138
1768885,1402476,1869619
1768886,1402807,1869331
1768811,1402675,1868978
1769018,1402921,1868897
1768964,1402597,1870334
1768996,1402270,1869103
1768880,1402456,1869029
1769246,1402456,1870150
1769441,1402368,1870387
1769895,1402547,1869311
1769732,1402444,1869431
1769753,1402318,1867863
1769486,1402699,1869141
1769441,1402872,1868526
1769774,1403217,1867885
1769605,1403261,1867565
1769605,1403248,1868176
1769384,1403284,1868145
1769697,1402910,1869760
1769939,1402854,1869446
1770097,1402486,1868737
1770097,1401975,1868907
1769946,1401893,1869461
1769984,1401366,1870425
1769973,1400857,1869942
1769741,1400645,1870307
1769608,1400014,1870573
1769436,1399244,1871013
1769227,1398583,1870840
1768970,1398384,1870784
1768993,1398172,1871152
1769099,1397942,1871057
1768815,1397579,1870912
1768821,1397278,1870621
1768845,1397064,1870275
1768397,1397109,1872221
1768353,1397174,1870769
1768197,1397237,1871371
1767617,1397062,1871653
1767532,1396765,1872999
1767532,1396461,1872098
1767770,1396345,1872804
1767675,1396221,1872960
1767727,1395785,1872107
1767688,1395212,1871434
1767951,1395100,1872439
1767780,1395167,1872863
1767642,1394709,1873037
1767837,1394266,1873387
1767710,1393335,1873238
1767620,1393006,1873628
1767374,1392444,1873174
1766509,1392668,1873388
1766833,1393219,1873323
1766917,1393212,1873189
1766622,1393430,1873514
1766563,1393451,1873978
1766505,1393793,1872780
1766320,1393803,1874412
1766583,1393570,1874001
1766620,1394140,1875860
1766635,1393980,1875131
1766344,1394031,1874567
1766372,1394362,1875382
1766392,1394407,1876378
1766603,1394677,1876852
1766850,1394624,1876574
1766630,1394452,1877540
1766487,1394264,1877052
1766488,1394563,1877072
1765951,1394940,1876657
1766162,1395338,1876252
1765896,1395435,1875885
1765896,1395088,1875605
1765714,1394549,1875294
1765746,1394560,1874993
1765752,1394606,1874559
1765358,1394282,1873373
1765029,1393475,1872701
1764189,1392710,1873096
1764067,1392622,1871665
1763806,1392404,1873600
1763389,1392013,1871454
1762812,1391614,1871847
1762579,1391695,1871152
1762207,1391803,1871366
1762087,1392019,1871588
1762068,1392642,1871374
1762061,1392524,1871653
1761903,1392604,1871588
1762044,1392113,1873186
1761451,1392565,1873620
1761460,1392979,1873246
1761435,1393039,1872210
1761070,1393243,1872917
1760806,1393446,1873860
1760754,1393378,1874473
1760579,1393121,1874455
1760759,1393431,1875957
1761066,1394166,1875938
1760887,1394494,1876383
1760848,1394718,1874480
1760664,1395291,1877329
1760963,1395461,1875714
1761236,1395561,1875944
1760793,1396019,1874863
1760669,1396286,1876114
1760574,1396416,1876727
1760921,1396712,1877229
1760941,1396868,1876637
1761009,1397351,1876537
1760893,1397939,1877532
1761374,1398923,1876489
1761128,1399577,1877657
1761101,1399996,1877191
1761294,1400262,1877343
1761640,1400289,1876156
1762200,1400283,1877971
1761718,1400317,1877247
1761486,1400080,1878653
1761335,1400110,1878127
1761314,1399543,1879187
1761018,1399360,1878770
1760645,1398060,1879850
1760036,1397138,1880010
1759785,1397040,1881191
1759558,1396859,1879024
1758948,1396306,1879538
1759156,1396344,1879088
1759228,1396606,1880373
1759128,1396797,1880258
1758929,1396941,1879271
1758587,1397082,1879456
1758684,1396844,1878929
1758841,1396963,1880346
1759042,1397100,1880647
1758770,1397052,1880580
1758795,1396656,1880769
1758706,1396917,1881121
1758744,1396959,1879505
1758595,1396973,1880400
1758786,1397163,1879557
1758905,1397136,1881432
1758564,1397231,1881074
1758955,1397460,1880223
1759241,1397632,1879315
1758678,1397936,1878690
1758496,1397987,1877462
1758625,1398046,1876836
1758703,1397834,1875555
1758755,1397998,1875728
1758837,1398115,1874824
1758706,1397914,1874675
1758707,1397905,1873420
1758935,1398107,1871703
1758972,1398303,1871608
1759284,1398347,1870817
1759567,1398329,1871527
1759518,1398269,1870803
1759886,1398142,1871667
1760037,1398299,1871723
1760065,1398282,1871846
1759850,1398710,1870951
1759826,1398529,1872038
1759879,1398938,1871715
1759889,1398718,1872143
1760068,1398788,1872953
1760082,1399041,1873441
1759918,1399286,1872008
1760282,1399337,1873080
1760164,1399264,1872696
1760281,1399780,1872310
1760147,1399423,1872931
1760119,1398711,1873446
1759302,1397371,1872695
1758807,1396498,1873455
1758832,1396554,1872550
1758740,1396283,1873366
1758776,1396054,1873321
1758760,1396006,1873557
1758486,1396229,1874215
1758288,1396282,1874874
1758211,1396133,1874854
1758359,1396296,1875452
1758410,1396219,1875996
1758259,1395977,1876909
1758257,1395674,1876808
1757980,1395704,1876843
1758358,1395479,1875970
1758381,1395664,1875950
1758640,1395670,1875040
1758842,1395532,1876439
1758872,1395200,1877125
1758725,1395358,1876436
1758725,1395528,1876309
1758960,1395616,1877340
1758112,1395461,1878211
1758112,1395376,1878645
1758030,1395189,1878125
1758258,1395032,1877808
1758184,1394944,1877155
1758255,1394853,1879343
1758185,1394327,1879336
1758178,1394243,1880316
1758125,1394354,1879409
1758326,1394643,1879131
1758283,1394939,1878698
1758322,1394971,1879110
1758478,1394930,1879026
1758410,1394578,1880113
1757928,1394811,1880065
1758363,1394544,1881066
1758670,1394667,1881221
1759179,1394498,1881308
1758816,1394669,1882065
1758889,1394575,1882227
1758908,1394787,1881718
1759248,1394627,1880736
1759067,1395136,1880792
1758792,1395057,1881830
1758792,1395365,1880705
1758744,1395008,1881149
1759128,1394887,1879503
1758817,1394694,1879529
1759206,1394791,1880604
1759088,1394553,1879987
1759196,1394683,1879241
1759366,1394908,1876407
1759350,1394731,1876008
1759339,1394962,1875223
1759475,1394861,1873883
1759979,1394452,1873392
1760022,1393913,1873600
1759975,1392902,1873309
1758933,1390974,1871975
1758195,1390248,1872818
1758027,1390032,1873305
1757646,1390053,1872644
1757002,1390100,1872024
1757217,1389829,1872724
1756571,1389503,1873304
1756629,1389549,1872157
1756455,1389987,1873458
1756454,1389443,1873366
1756395,1389303,1873941
1756083,1389200,1873360
1755941,1389262,1872895
1756517,1389308,1872675
1755942,1389183,1872852
1756005,1388834,1872974
1755956,1389346,1873814
1755926,1389422,1872593
1755801,1389702,1873446
1755717,1389307,1872705
1755694,1389322,1872545
1755859,1388924,1873515
1755400,1389388,1873584
1755132,1389625,1873061
1755170,1389649,1874631
1755004,1389527,1874846
1755009,1389738,1874723
1755133,1389733,1872496
1755168,1389687,1873084
1755035,1389505,1873757
1754905,1390098,1873492
1755483,1390781,1873705
1755579,1390902,1874573
1755399,1391029,1873821
1755519,1391409,1874241
1755676,1391397,1874752
1755251,1391690,1874880
1756176,1391847,1874898
1756052,1392181,1875513
1755845,1391831,1875932
1756072,1392310,1874729
1756312,1392532,1876886
1757157,1393236,1875964
1757154,1393150,1875842
1756920,1393295,1875407
1757225,1393733,1876179
1757322,1393563,1876043
1757506,1393856,1877369
1757266,1394065,1875984
1757427,1394446,1876867
1758091,1394405,1876796
1757986,1394319,1877414
1758197,1394241,1877338
1757987,1393222,1878316
1757795,1391359,1876211
1756879,1389747,1877463
1756209,1389089,1877967
1756558,1389191,1877690
1756397,1388973,1879121
1756403,1388859,1879079
1756171,1388556,1879202
1755743,1388798,1879320
1756087,1388183,1881803
1755582,1388129,1881433
1755740,1387749,1881996
1755589,1387820,1881629
1755816,1388157,1880430
1755055,1388147,1881159
1755095,1387288,1881272
1755124,1387626,1880641
1755275,1387458,1880230
1755179,1387517,1879934
1754976,1387607,1879304
1754483,1387634,1879648
1754568,1387914,1880012
1754893,1387856,1878748
1754912,1388307,1877325
1754778,1388206,1877724
1754891,1387935,1876117
1754868,1388002,1877566
1754823,1388119,1876888
1755082,1388317,1876472
1755518,1388471,1877135
1755456,1388390,1877592
1755591,1388472,1876307
1755543,1388538,1875388
1755487,1388757,1875758
1755607,1388844,1876747
1755589,1389289,1877099
1755247,1389311,1876867
1755247,1389355,1877072
1755472,1389411,1878135
1755585,1389559,1878137
1755654,1389886,1878071
1755663,1389712,1878738
1755806,1389845,1878060
1756160,1390297,1878931
1756047,1390367,1880241
1756251,1390296,1880378
1756502,1390591,1880266
1756518,1390619,1880618
1756543,1390301,1879719
1756434,1390699,1880803
1756536,1390859,1880007
1756786,1390856,1881709
1757193,1391033,1881435
1757229,1391282,1881561
1757450,1391478,1881287
1757555,1391820,1882007
1757412,1392496,1881882
1757921,1392499,1882778
1758530,1392597,1881098
1758156,1392939,1881688
1758119,1392840,1882442
1758369,1392651,1883143
1758481,1392645,1882111
1758335,1392897,1882824
1758509,1392888,1883270
1758262,1392619,1882662
1758170,1391640,1883134
1757849,1390397,1882168
1757129,1389101,1882168
1757009,1388911,1882514
1756782,1388855,1881950
1757300,1388627,1882012
1757414,1389039,1881988
1757185,1389148,1883330
1756833,1388925,1882492
1756687,1388916,1882775
1756671,1388849,1882268
1756781,1389430,1882492
1756852,1389082,1883266
1756375,1389089,1883486
1756590,1388883,1883654
1756892,1389376,1883721
1756866,1389497,1883384
1757282,1389785,1882774
1757292,1389420,1883317
1757404,1389334,1883555
1757421,1388741,1882735
1757152,1389405,1884169
1756932,1389550,1882666
1756901,1390088,1884092
1756663,1389827,1884222
1756663,1389775,1884348
1756409,1389800,1884201
1757039,1389799,1883641
1757029,1389572,1884847
1757010,1389680,1883275
1756877,1389504,1883167
1757107,1389708,1882310
1757096,1390427,1882027
1757215,1390709,1880946
1757384,1391060,1880156
1757623,1391217,1879487
1757745,1392262,1879167
1758107,1392652,1878754
1758553,1392918,1878823
1758456,1393298,1877900
1758504,1393031,1877516
1758478,1393262,1877514
1758626,1393369,1878954
1758649,1393592,1877860
1759052,1393690,1878414
1759022,1393809,1877543
1759130,1394010,1877683
1759617,1394467,1877489
1759946,1395179,1877546
1760347,1394498,1877587
1760128,1393180,1876946
1760046,1393087,1876939
1759655,1392364,1877598
1759347,1392024,1876676
1759239,1391591,1877582
1758966,1391720,1877936
1759033,1391525,1877429
1759125,1391619,1878179
1758842,1391575,1879584
1758811,1391763,1877366
1759000,1392074,1876990
1758973,1392362,1877321
1758850,1392312,1877226
1759283,1392513,1878564
1759224,1392795,1878872
1759194,1392615,1878713
1758950,1392527,1878513
1758796,1392629,1878480
1759158,1391983,1879422
1758958,1391810,1879224
1759287,1392172,1878854
1759009,1392287,1879251
1759625,1393096,1878794
1759583,1393102,1879443
1759600,1393214,1879528
1759863,1393805,1878673
1760029,1393589,1879712
1759787,1393790,1878944
1759692,1394113,1879790
1759806,1394117,1879179
1760334,1394260,1881347
1760160,1394446,1881351
1760490,1394540,1880855
1760641,1394753,1880467
1761279,1395384,1880292
1761296,1395502,1880343
1761268,1395754,1881470
1761344,1396212,1880741
1761562,1396345,1881213
1761717,1396283,1880810
1762135,1396575,1881708
1762205,1396375,1882579
1761844,1396344,1881905
1762009,1397080,1883575
1761988,1396660,1882776
1761879,1396203,1883679
1761453,1395311,1882653
1760904,1394063,1883435
1760533,1393889,1883468
1760167,1394085,1882877
1759896,1393853,1883164
1760127,1394457,1883057
1760303,1394401,1881852
1759886,1394494,1881223
1759660,1394429,1881456
1759372,1394404,1880654
1759615,1394660,1879674
1759597,1395036,1878790
1759684,1395536,1878979
1759515,1395918,1877333
1759841,1396127,1876770
1759898,1395930,1877243
1760052,1396065,1876561
1759815,1395751,1875749
1759887,1395743,1875773
1760100,1395966,1877646
1759865,1396447,1875962
1760041,1396586,1876422
1760036,1396470,1876313
1760208,1396748,1875728
1760229,1397018,1874526
1760178,1396953,1875442
1759990,1397066,1874523
1760298,1397155,1876604
1760399,1397412,1874912
1760950,1397489,1875920
1761056,1397709,1876230
1760894,1397653,1876913
1761096,1397688,1875709
1761171,1398120,1877241
1761207,1398212,1878004
1761534,1398340,1876851
1761056,1398643,1877195
1761056,1398891,1876767
1761068,1399102,1876437
1761224,1399217,1877097
1761379,1399599,1877698
1761207,1399363,1876474
1761339,1399392,1878722
1761520,1399760,1877171
1761469,1399984,1876817
1761583,1399910,1877033
1761768,1400160,1876029
1761979,1400411,1877882
1761902,1400394,1877424
1761697,1400434,1876836
1762017,1400599,1876629
1761936,1400621,1876613
1762485,1400698,1876894
1762546,1401048,1877131
1762868,1400959,1877236
1762723,1400903,1879018
1762894,1401480,1878167
1762537,1402071,1878669
1762413,1402407,1877240
1762413,1402425,1879227
1762432,1402410,1880402
1762644,1401878,1879738
1762919,1402507,1880027
1763223,1402448,1881235
1763255,1401932,1880106
1762972,1401667,1880465
1763071,1401370,1880133
1762838,1401006,1880732
1762653,1400641,1880643
1762446,1400423,1881065
1762130,1399946,1881175
1761671,1399700,1881818
1761895,1399763,1881994
1762021,1400134,1882907
1761557,1400275,1883446
1761500,1400433,1883173
1761454,1400994,1884613
1761216,1400985,1884581
1761079,1401125,1883523
1761422,1401024,1883673
1761379,1401576,1883901
1761501,1401271,1884085
1761385,1401556,1884277
1761868,1402189,1884428
1761561,1402264,1884118
1762038,1402371,1882255
1761819,1402547,1882621
1761937,1402720,1880119
1762444,1403223,1879883
1762449,1403327,1879905
1762422,1403641,1879864
1762420,1403912,1878872
1762021,1403932,1877493
1762283,1404233,1878132
1762455,1404472,1877805
1762802,1404999,1877325
1762637,1405642,1876899
1763344,1405940,1876858
1763505,1406500,1876821
1763584,1406552,1876232
1764318,1406800,1876672
1764398,1407034,1877152
1764275,1407332,1876918
1764291,1407482,1877141
1764039,1407504,1878158
1764285,1408077,1877395
1764273,1408250,1879258
1764388,1408146,1877501
1764795,1408530,1877647
1764984,1409095,1877678
1765424,1409542,1877802
1765474,1409575,1879039
1764927,1408336,1879310
1765187,1408079,1879282
1764984,1407746,1879590
1764324,1407097,1880163
1764536,1406742,1879240
1764516,1406555,1878931
1764440,1406764,1879236
1764355,1406855,1880292
1764433,1407775,1879230
1764590,1407508,1878087
1764894,1407668,1878500
1764991,1408086,1879492
1765139,1407957,1880068
1764781,1408054,1880231
1765011,1408127,1880351
1764711,1408331,1883525
1764794,1408246,1881715
1764771,1408129,1881799
1765273,1408140,1881886
1764990,1408028,1882326
1764910,1407909,1882332
1764855,1407545,1883207
1765068,1407539,1884332
1765067,1407607,1883438
1765561,1407789,1884727
1765712,1407798,1884435
1765424,1407701,1884462
1765810,1407601,1884332
1765554,1407992,1884677
1765788,1408323,1885128
1765555,1408492,1886703
1765555,1408537,1886336
1765340,1408511,1886272
1765466,1408598,1887836
1765748,1408855,1889031
1766037,1408784,1888865
1765830,1408628,1888832
1765954,1408870,1889212
1766181,1409400,1890103
1766240,1409561,1889740
1766413,1409421,1890533
1766464,1409653,1891130
1766541,1409353,1890381
1766296,1409246,1891277
1766396,1409491,1891184
1766672,1409618,1891169
1767117,1409829,1891602
1767078,1409791,1891327
1767835,1409808,1890431
1767201,1409986,1890335
1767227,1409981,1889447
1767348,1410089,1890347
1766887,1410396,1890220
1766931,1410259,1888850
1766931,1410516,1886692
1767104,1410341,1886424
1767260,1410636,1886415
1767598,1410623,1885245
1767420,1410045,1885204
1767358,1409526,1885317
1767056,1409347,1884452
1767112,1408780,1885326
1767230,1407769,1885143
1766765,1407427,1883991
1766620,1407019,1884787
1766549,1407186,1883662
1766529,1407052,1884129
1766781,1407239,1883553
1766548,1407112,1884649
1766543,1407029,1884133
1766769,1406807,1885170
1766910,1407045,1884199
1767086,1407152,1885721
1766815,1407393,1884461
1766315,1407140,1885462
1766315,1407070,1884768
1766486,1407087,1884970
1766397,1407327,1885485
1766394,1407190,1885906
1766472,1407171,1884693
1766405,1407115,1884694
1766695,1407547,1885096
1766611,1407712,1885491
1766709,1407336,1885163
1766759,1407473,1884509
1766728,1407291,1885322
1766622,1406945,1885681
1766854,1406910,1885510
1766601,1406967,1885158
1767053,1406846,1886685
1767074,1406848,1887246
1766805,1406742,1886870
1766770,1406783,1885124
1766835,1406872,1886676
1766899,1406814,1885734
1766899,1407196,1887303
1766621,1407275,1887869
1766621,1407129,1887783
1766688,1407255,1887322
1766813,1407626,1888905
1766974,1407826,1888860
1766753,1407491,1889292
1766880,1407538,1888484
1767193,1407800,1888180
1767269,1408011,1889122
1767224,1408104,1889067
1767349,1408350,1889209
1767195,1408368,1888634
1767010,1408265,1889757
1766957,1408369,1889583
1767295,1408548,1889884
1767342,1408717,1888981
1767648,1409215,1890185
1767683,1408903,1889472
1767732,1409107,1889487
1768170,1409346,1888333
1768595,1409208,1888445
1768636,1409349,1889110
1768975,1409353,1889999
1768762,1409615,1889246
1768541,1409332,1887974
1768708,1409619,1886909
1768999,1409022,1886709
1768669,1408780,1884946
1768461,1407242,1884697
1767760,1406009,1882809
1767999,1405264,1882365
1767430,1404712,1882010
1767451,1404067,1883073
1767407,1404462,1882228
1767262,1404224,1881577
1766859,1404079,1880851
1766832,1404042,1879333
1766529,1404211,1879869
1766671,1403913,1879281
1766491,1404064,1879542
1766813,1404190,1879589
1766182,1404520,1878694
1766710,1404705,1877918
1766000,1404862,1878605
1766120,1404315,1878300
1766414,1404784,1878059
1766632,1404979,1877547
1766275,1404975,1876853
1766169,1405175,1876501
1766087,1405025,1876988
1766323,1405405,1877135
1766243,1405635,1876546
1766301,1405760,1877194
1765937,1405836,1876525
1766127,1405837,1876571
1766643,1405959,1875507
1767197,1406172,1874640
1766892,1406687,1874834
1767424,1406088,1873952
1767522,1406171,1874318
1767815,1406065,1874117
1767722,1406197,1874139
1768057,1406164,1873972
1767980,1406110,1874249
1767996,1406464,1874765
1768173,1406596,1873835
1768148,1406430,1874761
1768401,1405591,1874273
1767901,1404436,1875140
1767363,1403202,1874301
1766892,1402341,1874863
1766222,1401380,1875233
1766300,1401451,1875140
1766336,1401230,1874940
1766481,1401689,1875229
1766058,1401340,1877382
1765344,1401199,1875547
1765243,1401253,1874722
1765398,1401128,1875379
1765245,1401227,1875226
1764959,1401507,1874471
1765151,1401638,1874497
1765220,1401170,1874760
1764192,1400456,1875727
1765010,1400671,1875711
1765114,1400555,1874937
1765320,1400473,1874639
1765196,1400777,1874685
1765326,1400696,1875908
1765120,1400299,1875626
1764950,1400842,1875498
1764854,1400901,1876391
1764986,1400785,1876378
1764753,1400652,1874660
1764764,1400752,1874982
1765077,1400767,1874426
1765487,1400715,1874529
1765551,1400623,1873559
1765576,1400615,1871914
1765524,1401265,1872081
1765752,1401040,1871835
1765902,1401224,1870828
1765897,1400899,1869836
1765845,1400997,1869685
1766077,1401457,1869369
1765622,1401674,1868441
1765424,1402040,1868135
1765380,1401999,1868303
1765676,1402057,1868762
1765441,1402153,1867733
1765707,1402148,1867015
1766242,1402407,1867915
1765948,1402917,1866995
1766453,1403298,1868071
1767200,1402278,1867841
1766539,1401684,1867629
1766508,1401361,1867487
1766173,1400954,1869388
1765585,1400954,1868520
1765168,1400466,1868221
1765095,1400072,1867772
1764602,1399639,1868645
1764742,1398949,1870164
1764653,1398805,1871284
1764608,1398238,1871350
1765490,1397715,1870804
1764509,1396638,1871331
1763931,1396097,1871847
1763080,1395657,1872718
1762133,1395672,1872212
1762710,1395834,1872306
1762291,1395717,1871775
1761907,1395555,1872458
1761749,1395582,1872196
1762199,1395124,1873646
1761809,1394727,1872869
1761334,1394843,1873156
1760682,1394646,1873617
1760927,1395172,1875788
1760924,1394940,1875114
1760453,1395352,1875881
1760652,1395835,1875034
1760419,1395909,1876567
1760593,1395833,1876107
1760902,1396063,1877338
1760708,1396344,1878822
1760391,1396320,1878668
1760514,1396211,1880176
1760566,1396480,1880324
1760890,1396583,1880855
1760909,1396706,1880804
1761033,1396636,1881559
1760845,1396602,1880929
1761134,1396869,1882023
1761591,1397301,1881848
1761489,1397124,1883302
1761849,1397169,1883144
1762438,1397501,1884820
1762451,1397411,1884077
1762429,1397302,1885444
1762412,1397258,1885785
1762345,1397352,1886764
1762208,1397397,1886816
1762804,1397374,1887160
1762171,1397606,1887037
1762585,1398366,1886460
1762789,1398817,1885571
1763319,1399229,1887475
1763698,1399085,1886721
1763450,1398535,1886477
1763663,1398657,1886626
1763062,1397972,1885718
1763187,1397282,1886924
1762451,1396124,1886390
1761399,1396072,1885822
1761717,1395045,1885471
1760963,1394745,1885657
1760631,1394219,1883808
1759839,1393745,1883242
1760036,1393638,1882887
1759450,1392665,1881722
1758647,1392185,1882526
1758613,1392446,1882335
1758322,1392584,1881689
1758386,1392616,1881346
1758153,1392757,1880166
1757529,1392779,1881233
1758109,1392396,1880789
1758001,1392125,1882246
1757663,1391995,1881090
1757046,1392260,1880740
1757105,1392760,1881896
1757126,1392953,1880166
1756885,1392882,1881083
1757212,1393157,1880773
1757155,1393239,1881089
1757480,1393129,1880400
1757350,1393165,1881032
1757011,1393255,1880995
1757112,1393344,1881847
1756877,1394083,1881439
1756871,1394350,1882242
1756904,1395192,1880510
1757066,1395807,1881746
1757576,1396309,1880770
1757786,1396716,1881934
1757296,1397499,1880194
1758035,1397877,1880647
1758420,1397904,1879991
1758123,1398282,1880031
1758324,1398738,1879310
1758524,1399146,1880854
1758289,1399589,1878889
1758336,1399885,1880485
1757916,1400174,1880451
1758456,1400647,1880872
1758761,1400814,1880123
1758907,1401094,1880095
1759585,1401234,1880791
1759534,1401316,1879534
1759824,1401241,1880879
1759879,1401292,1879919
1759783,1401518,1881012
1760474,1401185,1881460
1760305,1401575,1881861
1760263,1401247,1880315
1760034,1401131,1881380
1759871,1400340,1881577
1759761,1400090,1882064
1759272,1399433,1881701
1759157,1398704,1881453
1758974,1398286,1882150
1758225,1397257,1881002
1758626,1396787,1881009
1757566,1396990,1880717
1757151,1397566,1879771
1757257,1397798,1878281
1757026,1398099,1878139
1756999,1398022,1874824
1757067,1397853,1873622
1757221,1397996,1871520
1756793,1398383,1869530
1756778,1398345,1868097
1756982,1398549,1866504
1756917,1398474,1864666
1757423,1398647,1864290
1757208,1398604,1863518
1757136,1398324,1862403
1757180,1398028,1863221
1757347,1398052,1863106
1757535,1397911,1862472
1757981,1397650,1861289
1757900,1397320,1860697
1757892,1397129,1860891
1757837,1396954,1860271
1757710,1397467,1860695
1758024,1398051,1860695
1758239,1398023,1861337
1758147,1397910,1861536
1758024,1397706,1861518
1758297,1398038,1861405
1758012,1397948,1862176
1758066,1397864,1861579
1758869,1398137,1861542
1758368,1398408,1860409
1758175,1398370,1861450
1758463,1398524,1861433
1757638,1398575,1860218
1758120,1398671,1861842
1758526,1398789,1861455
1758911,1398932,1862135
1759191,1398827,1862975
1759024,1398893,1864291
1759079,1398883,1863276
1759298,1399096,1864434
1759179,1399671,1864260
1759237,1400166,1863498
1759259,1400732,1864276
1759421,1400783,1865653
1759398,1401155,1865913
1759399,1401555,1867159
1759676,1401484,1867972
1759871,1401645,1868386
1760564,1402040,1869245
1760483,1402264,1869224
1760837,1403051,1870320
1761133,1403519,1870159
1761140,1403371,1870337
1761631,1403503,1871662
1761757,1403439,1871073
1762088,1403539,1871519
1761713,1403661,1871682
1761157,1403580,1871808
1760949,1403200,1872187
1761062,1402777,1872221
1760996,1402395,1872303
1760446,1401944,1872462
1760469,1401164,1873608
1760245,1400607,1873975
1760251,1400513,1872824
1759554,1399985,1874769
1759678,1400626,1873183
1759861,1400527,1874447
1759342,1400334,1873944
1759567,1400479,1875774
1759885,1400721,1876078
1759602,1401022,1876434
1759491,1401434,1875736
1759639,1401136,1876161
1759467,1401050,1874856
1759872,1400972,1875336
1760090,1401215,1874977
1760067,1401012,1874913
1759933,1400667,1874379
1759792,1400970,1873207
1759815,1400852,1873010
1759779,1400843,1872704
1760207,1400806,1872309
1760474,1400894,1870737
1760114,1400972,1868156
1760356,1401184,1868298
1760623,1401157,1867221
1760659,1401557,1865554
1760495,1401419,1864666
1760607,1401630,1864826
1760583,1401511,1862795
1760857,1401920,1863884
1760989,1401791,1863040
1760732,1401856,1863764
1760606,1401653,1861710
1760811,1402002,1861982
1760988,1402287,1861273
1761356,1402322,1861256
1761613,1402090,1861913
1761605,1402027,1861815
1761811,1401617,1861737
1762006,1401927,1862578
1761965,1402132,1861096
1762190,1402717,1861991
1762152,1402668,1862988
1762309,1402859,1862842
1762608,1402857,1863253
1762089,1403107,1863876
1762389,1403316,1863988
1763063,1402983,1863575
1762745,1402580,1863207
1762681,1403106,1863595
1762512,1401996,1863229
1761930,1400736,1862690
1761629,1399293,1864395
1761323,1398849,1863432
1761077,1398957,1863288
1761093,1398685,1864266
1761398,1398631,1863656
1761075,1398464,1865496
1760702,1398879,1865155
1760817,1398659,1865125
1760817,1398490,1865769
1760784,1398757,1866142
1760709,1398905,1866535
1760709,1399097,1867278
1760965,1399366,1867837
1760923,1398465,1868164
1761621,1397529,1869023
1761412,1397596,1869382
1761421,1397322,1871041
1761064,1397379,1872009
1760718,1397828,1872088
1761236,1398115,1873422
1760839,1398199,1873710
1760987,1398511,1874081
1761336,1398459,1873970
1761836,1398922,1874657
1761927,1398752,1874965
1762216,1398668,1877239
1762619,1398978,1876301
1762728,1398797,1876316
1762531,1398808,1876631
1762693,1399336,1878832
1762541,1399335,1877805
1762204,1399259,1878399
1762415,1399673,1877432
1762596,1399733,1876920
1762690,1399915,1878364
1762676,1399958,1877830
1763417,1399779,1876550
1762845,1399682,1878826
1762922,1399981,1878280
1763160,1399878,1879190
1762738,1399885,1878557
1763221,1399657,1878019
1763245,1399279,1877110
1763165,1398720,1875657
1762990,1398283,1875759
1762912,1397860,1874796
1762490,1397761,1875009
1762014,1397380,1873795
1762014,1396763,1872823
1761725,1396280,1873472
1761478,1395821,1872843
1761227,1395793,1873125
1761137,1395339,1873341
1760868,1395082,1873153
1760731,1395316,1873386
1760627,1395278,1872382
1760417,1395306,1873042
1760549,1395456,1871935
1760300,1395465,1872333
1760146,1395423,1870534
1759991,1395263,1871539
1760049,1395153,1871151
1760250,1395089,1871717
1760306,1395162,1871096
1760276,1394966,1870282
1760197,1394934,1871707
1760485,1395078,1870126
1760177,1395290,1869743
1760072,1396214,1868821
1759781,1396344,1869073
1759781,1396061,1868502
1759296,1396246,1867448
1759455,1396108,1866408
1759615,1396268,1867252
1759757,1396218,1867145
1759777,1395734,1867016
1759618,1395713,1867954
1759384,1395932,1868356
1759052,1395947,1868003
1759436,1396193,1868211
1759954,1396868,1867804
1759805,1397257,1867896
1760135,1397962,1868545
1760286,1398358,1869203
1760429,1398707,1868592
1760505,1398596,1867858
1760865,1398865,1869569
1760745,1399153,1868099
1760867,1399174,1868976
1760691,1399119,1868740
1760938,1399424,1870128
1761453,1400192,1869263
1761461,1400023,1870204
1762041,1400447,1870651
1762381,1400706,1870109
1762027,1399975,1869448
1762297,1399442,1870973
1762124,1398865,1871154
1761486,1398582,1868836
1760884,1398133,1869139
1760825,1397828,1869106
1760623,1397177,1868705
1760595,1397190,1868380
1760362,1396886,1867309
1760078,1396438,1868003
1759909,1396254,1868293
1759898,1396230,1868153
1759567,1396133,1869060
1760076,1395959,1867743
1760091,1395919,1865857
1760029,1395818,1864052
1759957,1395800,1864377
1759849,1396056,1863374
1759623,1396025,1863071
1759500,1395988,1862238
1759192,1396074,1861760
1759192,1396286,1860495
1759228,1396380,1860301
1759303,1395960,1859834
1759204,1396070,1861101
1759299,1396311,1860349
1759214,1396610,1859054
1759184,1396575,1858806
1759001,1396255,1858954
1759106,1396522,1858102
1758920,1396555,1856861
1759012,1396495,1856095
1758763,1396431,1855169
1758897,1396816,1855213
1758965,1397259,1854467
1759459,1397456,1854337
1759031,1398126,1853217
1759099,1397944,1853334
1759173,1398385,1853060
1759394,1398929,1853694
1758660,1399557,1853015
1759296,1399661,1853336
1759114,1399855,1852043
1759690,1399962,1850869
1759787,1400786,1849839
1760485,1401569,1849375
1760409,1401959,1848723
1760437,1402146,1848821
1760624,1402752,1848488
1760850,1402663,1847917
1760766,1402870,1847857
1760642,1402689,1849839
1760442,1403125,1849686
1760381,1402872,1847413
1760546,1402056,1848384
1760526,1401742,1847427
1759858,1400466,1847739
1759143,1399555,1849095
1759251,1399292,1848651
1758954,1399434,1848985
1758375,1399355,1848498
1758571,1399688,1849253
1758850,1399672,1849109
1759116,1399864,1849180
1759001,1399683,1848719
1758804,1399238,1849149
1758764,1399446,1849672
1758748,1399657,1851323
1758677,1400076,1851332
1758619,1400407,1851729
1758510,1400546,1851761
1758638,1400224,1851978
1758682,1400165,1850334
1758494,1400565,1850976
1758645,1400920,1851476
1758838,1401038,1850196
1759043,1401435,1850213
1759249,1401431,1850929
1759031,1401245,1849347
1759061,1401786,1851293
1759149,1401966,1850537
1759385,1402315,1848287
1759851,1402393,1847676
1759919,1402848,1845673
1760075,1403256,1844818
1760072,1403468,1844693
1760734,1403461,1843059
1760804,1403380,1842395
1760599,1403460,1841762
1760398,1403456,1840902
1760409,1403089,1841369
1760344,1402849,1841601
1760159,1402639,1839444
1760021,1402114,1838898
1759913,1401366,1837827
1759488,1400990,1837987
1759435,1400623,1839467
1759128,1400299,1837864
1759445,1399726,1838016
1759462,1398793,1838939
1759305,1398637,1840545
1759324,1398435,1839194
1759260,1398274,1838742
1758696,1398447,1839602
1758548,1398814,1839789
1758200,1398669,1840323
1758763,1398544,1840047
1758901,1398480,1840655
1758481,1398562,1841330
1758798,1398519,1842275
1758848,1398479,1842332
1758570,1398593,1842035
1758690,1398790,1843075
1758231,1398903,1843786
1758225,1398632,1843089
1758568,1398537,1841030
1758649,1398342,1841379
1758731,1398386,1842571
1759101,1398143,1842671
1758787,1398068,1842176
1759035,1397715,1841500
1758767,1397683,1844546
1758961,1397602,1843761
1758699,1398097,1844391
1758596,1398082,1844202
1758596,1397960,1844863
1758404,1398070,1844454
1758407,1398220,1845559
1758402,1398241,1845146
1758562,1398129,1844814
1758671,1397934,1846292
1759337,1397956,1844934
1758838,1398258,1845246
1758921,1398568,1846095
1759183,1398467,1845732
1758670,1398729,1844620
1759009,1398720,1845750
1758953,1398669,1844889
1759018,1398774,1846119
1759182,1398967,1846036
1759751,1398884,1846006
1759925,1399101,1845851
1759958,1399346,1848450
1759774,1399164,1847600
1759578,1399168,1846618
1759759,1399419,1846129
1759870,1399758,1846967
1759988,1399650,1848124
1760495,1399873,1847465
1760447,1399935,1848093
1760475,1400092,1848733
1760302,1400145,1849482
1760453,1399993,1849383
1760512,1399940,1849272
1760592,1399987,1848893
1760436,1399906,1848488
1760450,1398999,1847286
1760202,1398592,1846665
1760100,1398220,1846985
1760032,1397648,1847857
1760102,1397476,1846911
1759569,1396473,1847495
1759498,1395612,1846547
1759131,1395215,1847806
1758973,1394899,1845802
1758594,1394685,1845714
1758365,1394708,1844459
1758339,1394527,1844483
1757792,1393776,1842662
1756906,1393844,1842627
1757571,1393412,1840174
1757183,1393443,1838576
1757419,1392788,1839785
1756753,1392518,1837429
1756611,1392466,1838442
1756575,1392622,1837387
1756602,1392358,1839067
1755855,1392413,1837609
1755910,1392480,1838491
1756064,1391975,1838174
1755759,1391817,1839024
1755594,1392011,1837551
1755660,1391607,1837001
1755230,1391659,1836518
1755344,1391952,1838435
1755165,1392061,1838288
1754693,1392098,1839443
1754820,1392016,1839931
1754798,1392252,1840725
1754868,1392546,1841767
1754853,1392774,1843334
1754953,1392799,1843433
1754524,1392841,1843345
1754851,1392848,1844245
1754950,1393193,1844890
1755115,1393359,1846131
1755424,1393376,1846548
1755345,1393227,1847210
1755144,1393218,1848802
1755220,1393475,1849759
1755326,1393645,1849673
1755162,1394115,1851971
1755539,1394222,1851526
1755583,1394717,1852294
1755620,1394607,1854152
1755585,1394513,1854287
1755605,1394675,1855641
1755603,1394658,1856485
1755400,1394526,1856167
1755625,1394917,1856902
1755913,1394785,1857280
1755790,1395007,1858405
1756503,1395105,1857583
1756479,1395579,1861462
1757028,1396216,1862468
1756906,1396687,1861304
1757258,1396266,1862476
1757280,1396450,1863166
1757369,1396144,1863354
1757396,1395734,1863763
1756912,1394780,1864325
1756114,1394094,1863185
1755725,1393619,1864112
1755669,1393132,1863618
1754940,1392637,1865432
1754733,1391297,1864621
1753786,1390836,1865616
1753430,1390561,1865445
1752459,1390273,1866119
1752254,1390224,1866535
1752154,1390503,1868427
1752097,1390537,1868613
1751474,1390779,1869478
1751686,1390988,1870265
1751268,1390829,1870091
1750863,1391108,1870145
1750870,1391142,1872043
1750380,1391654,1872022
1750549,1391778,1872831
1750735,1392187,1873436
1750617,1392429,1873127
1750788,1392499,1875510
1750278,1392626,1876120
1750823,1393075,1875405
1750655,1393549,1875477
1750447,1393607,1875555
1750939,1393997,1876170
1751128,1394434,1875928
1751559,1394866,1875777
1751681,1395490,1875359
1751752,1395638,1875571
1751623,1395909,1875922
1752208,1396370,1875811
1752330,1396555,1878073
1752121,1396880,1877546
1752606,1396816,1876561
1752406,1397006,1877840
1752662,1397682,1877746
1752904,1398360,1879185
1753956,1399001,1877053
1753966,1398920,1877038
1753885,1397795,1878400
1753812,1397612,1879481
1753658,1396867,1879765
1753322,1396460,1881208
1753083,1395832,1882421
1752704,1395742,1881575
1752080,1395016,1881210
1751979,1394608,1882033
1751988,1394253,1881793
1751843,1394259,1883332
1751639,1393910,1882608
1751437,1393803,1881910
1751089,1393626,1882997
1750735,1393859,1883417
1751187,1393915,1884666
1751155,1394171,1884095
1751261,1394019,1884431
1751074,1393992,1885195
1750840,1393990,1885152
1750658,1393880,1884698
1750916,1393608,1884840
1750561,1394008,1885449
1750528,1393935,1884511
1750528,1394155,1886105
1750277,1394133,1886149
1750290,1394112,1885487
1750296,1394341,1886034
1750293,1393997,1886342
1750064,1393947,1884402
1749980,1393951,1886093
1750610,1394160,1885667
1750117,1394132,1885706
1749984,1394183,1886555
1750147,1393826,1885912
1749359,1393795,1886598
1749567,1393905,1886788
1749606,1393788,1887864
1750152,1393938,1887074
1750349,1393963,1887240
1750307,1394163,1886738
1750219,1394197,1886118
1750008,1394536,1885957
1750063,1394520,1886716
1750084,1395065,1886418
1749632,1395376,1886298
1749632,1395561,1885280
1749810,1395719,1884993
1749954,1395852,1884269
1750097,1395955,1882694
1750027,1395662,1884161
1750306,1395633,1882649
1750694,1396176,1882512
1750574,1396341,1884198
1750725,1396686,1883108
1750985,1396844,1883637
1750881,1396875,1883640
1750909,1396646,1882144
1751010,1396697,1882610
1751246,1396602,1883055
1751471,1396643,1881970
1752169,1396731,1881771
1752051,1396759,1882186
1752013,1396956,1882092
1752060,1397023,1882176
1751961,1397297,1882401
1751969,1397703,1883214
1752149,1398018,1882254
1752149,1398002,1882183
1752560,1398321,1881107
1752732,1398591,1882003
1753181,1398450,1881981
1752548,1398635,1883761
1752847,1398645,1882495
1752658,1398051,1882601
1752293,1397171,1882218
1751739,1395537,1881718
1750938,1394857,1881929
1751084,1394231,1881849
1751004,1394216,1880925
1750072,1394221,1880302
1750188,1394467,1880197
1750129,1394462,1880852
1749517,1394590,1880381
1749561,1394451,1879643
1749883,1394631,1879574
1749985,1394513,1879699
1750031,1394705,1879307
1750195,1395086,1880997
1750021,1394473,1880997
1749929,1394193,1880274
1749936,1394376,1880824
1749781,1394453,1880647
1749932,1394458,1880856
1750000,1394004,1880690
1749954,1394290,1879720
1749832,1394595,1880516
1750052,1394449,1881018
1749842,1394827,1880925
1749877,1394938,1881936
1749870,1395407,1881339
1749860,1395546,1881047
1749779,1395619,1879538
1750019,1395758,1881346
1749879,1395859,1881674
1750294,1395983,1880250
1750466,1395934,1880947
1750569,1395843,1881792
1750584,1396367,1881823
1750722,1396318,1882176
1750781,1396697,1881320
1751126,1396539,1880373
1751359,1396818,1879031
1751274,1396561,1879809
1751509,1396861,1880830
1751443,1396956,1879852
1751455,1397432,1878973
1751313,1397475,1878680
1751313,1397587,1878979
1751350,1397547,1877878
1751800,1397682,1878181
1752276,1397519,1877411
1752671,1397812,1877963
1752609,1397774,1877604
1752334,1398116,1875234
1752202,1398104,1875477
1752476,1398165,1875368
1752369,1398300,1874803
1752402,1398420,1874354
1752614,1399017,1874255
1752687,1398539,1875061
1752865,1398376,1875379
1753205,1398562,1875390
1753523,1398488,1874206
1753589,1398625,1873440
1753840,1397843,1875492
1752969,1396340,1874867
1752114,1394540,1875894
1751863,1394652,1875050
1751682,1394235,1875739
1751117,1393767,1875593
1750604,1394127,1876051
1751028,1393916,1875514
1750364,1393587,1875517
1750238,1393912,1876479
1750222,1393748,1875515
1749973,1393546,1875663
1749865,1393355,1876963
1749597,1393249,1875955
1749698,1393430,1876168
1749704,1393892,1876438
1749539,1393353,1877015
1749076,1393784,1875996
1749318,1393667,1877105
1748834,1393918,1877509
1748492,1394049,1877130
1748897,1393820,1878933
1748966,1393950,1878297
1748875,1394173,1878730
1748797,1394996,1878325
1749232,1395773,1879852
1749855,1395766,1878857
1749549,1395981,1880268
1749804,1396472,1879833
1750151,1396488,1880835
1750172,1396388,1880932
1750309,1397027,1881053
1750082,1397187,1881006
1750156,1397193,1881664
1750335,1397261,1880752
1750589,1397467,1882523
1750847,1397292,1881311
1750603,1397465,1881492
1751209,1397691,1881096
1751395,1398124,1881772
1751976,1398585,1881993
1752437,1398900,1884144
1752172,1399292,1884816
1752701,1399720,1884763
1753053,1399774,1884297
1753168,1399947,1884797
1752848,1399705,1885227
1753105,1399580,1885987
1753190,1399283,1887714
1753048,1399012,1886602
1752806,1398170,1887841
1752533,1397633,1886539
1752089,1397019,1886729
1751831,1396634,1887852
1751885,1396023,1887836
1751912,1395697,1887541
1751360,1395292,1888678
1751176,1394959,1888778
1751367,1394838,1889357
1751144,1395006,1888045
1750802,1395141,1888707
1750436,1395436,1887567
1749894,1395462,1888370
1749894,1395605,1886388
1749785,1395554,1885358
1749773,1395810,1886312
1749610,1395943,1884183
1749557,1395648,1884874
1749836,1395485,1884152
1749001,1396023,1884526
1748460,1396324,1883300
1748719,1396729,1882783
1748817,1396875,1881375
1748817,1396859,1883484
1748830,1396886,1882655
1749022,1397033,1882657
1748918,1397023,1883006
1749156,1396926,1884295
1749449,1396831,1883140
1749227,1396794,1884520
1749103,1396542,1883685
1748964,1396668,1884828
1748995,1396749,1885019
1749264,1397048,1885127
1748845,1397172,1886764
1748845,1396929,1887571
1748859,1396954,1888582
1749037,1396933,1888113
1749097,1396968,1887689
1749850,1396959,1887765
1749479,1396860,1888680
1748656,1396900,1888479
1749025,1397355,1888125
1748994,1397744,1888024
1749676,1397915,1888736
1749464,1398502,1889734
1750120,1399443,1891054
1750308,1399607,1891990
1750781,1400010,1891040
1750514,1400326,1890349
1751036,1399990,1890629
1750779,1400253,1891734
1751000,1400373,1891186
1750791,1400739,1890019
1751442,1400733,1890712
1751599,1400930,1891211
1751152,1402909,1891384
1751115,1403326,1891351
1752136,1404299,1890650
1752220,1404194,1890400
1751594,1403179,1891309
1751646,1403247,1890876
1751773,1402406,1892691
1751381,1402088,1892937
1751287,1401302,1892734
1750772,1401121,1891235
1751225,1400564,1891409
1750679,1400599,1890803
1750684,1400641,1891309
1750241,1401104,1892423
1751039,1401761,1890448
1750786,1401480,1891129
1750338,1401662,1891832
1750601,1402176,1891293
1750621,1402287,1891130
1750501,1402319,1890202
1750315,1403346,1888846
1750079,1402948,1889660
1749553,1402528,1889306
1750088,1402460,1887458
1750124,1402210,1886320
1749973,1402467,1885725
1750260,1402500,1886016
1750386,1402917,1886021
1750658,1403391,1884506
1751306,1404083,1885254
1751232,1403887,1885408
1751379,1404432,1884438
1751853,1404415,1884924
1752016,1404433,1883849
1751746,1404546,1884349
1751871,1404655,1886094
1752043,1404559,1884941
1752313,1404544,1883883
1752196,1404782,1883682
1752945,1404589,1883670
1752891,1404590,1883133
1753508,1405065,1883485
1753443,1404246,1883137
1753106,1402457,1882493
1752643,1402239,1882564
1752191,1401744,1881869
1752152,1401568,1881508
1751974,1401032,1881019
1751424,1400749,1880063
1751205,1400180,1879117
1751120,1400148,1878764
1750700,1400414,1879022
1750536,1400634,1878625
1750257,1400822,1878771
1749991,1401176,1879676
1750384,1401207,1879339
1750570,1401061,1880045
1750283,1400866,1879537
1750056,1400879,1880921
1750212,1400340,1880436
1749790,1400589,1881708
1749852,1400941,1881577
1749766,1401477,1882294
1750149,1401605,1883008
1750226,1402207,1883080
1750147,1402500,1883122
1750281,1403029,1883885
1750751,1402931,1885425
1750816,1403310,1885736
1751039,1403155,1887512
1750967,1403029,1887046
1750897,1403400,1889273
1751370,1404035,1888874
1751565,1404376,1889470
1751921,1405012,1889758
1752339,1405384,1889970
1752423,1405326,1888512
1752546,1405233,1888422
1752947,1404981,1888535
1752568,1404895,1888559
1752242,1404218,1888815
1751867,1403664,1889125
1751745,1402950,1889240
1751368,1402680,1890486
1751017,1402341,1889963
1750695,1402016,1891041
1750419,1401441,1890034
1750149,1401635,1888876
1749966,1401505,1888796
1750158,1401523,1888556
1750329,1401439,1887423
1749762,1401281,1886244
1749987,1400974,1886572
1749657,1401212,1884932
1749393,1401127,1884884
1749025,1401507,1884465
1748527,1401718,1885004
1748527,1401693,1883602
1748088,1401859,1881843
1748158,1401998,1880479
1748037,1402050,1880528
1747934,1401851,1880833
1747700,1401744,1880591
1747782,1401995,1879731
1747814,1402197,1878661
1747754,1402240,1879044
1747822,1402425,1878759
1747580,1402490,1879473
1747216,1402376,1877428
1747501,1402550,1877690
1747300,1402535,1878251
1747267,1402855,1878022
1747600,1402703,1879238
1747550,1402581,1880072
1747409,1402302,1880272
1747651,1402462,1881892
1747537,1402538,1882093
1747639,1402882,1884087
1747956,1403157,1884185
1747956,1403293,1884781
1747254,1403605,1884712
1747005,1403620,1885363
1746983,1404371,1885361
1746749,1404265,1885852
1747208,1403994,1885141
1747372,1404420,1886181
1747470,1404497,1887048
1747666,1405004,1887874
1747725,1405279,1888087
1747657,1405572,1890698
1747935,1405623,1891801
1747410,1405772,1891867
1747980,1406172,1890846
1748238,1406374,1892562
1748761,1406619,1892781
1748788,1406549,1894315
1748762,1406603,1894851
1748958,1406451,1895289
1749121,1406707,1898291
1749844,1406940,1896606
1749283,1407310,1898066
1748954,1407594,1898210
1748954,1407644,1898465
1749093,1407762,1897243
1748490,1408128,1898012
1749196,1408579,1898913
1749489,1408116,1899493
1749694,1407975,1900267
1749884,1408509,1900582
1750032,1409010,1899420
1750094,1409099,1900140
1750128,1409558,1900638
1750532,1410000,1901797
1750761,1410136,1901891
1750963,1409493,1901871
1749820,1408460,1902569
1749141,1407252,1903274
1749185,1407026,1903751
1749153,1407076,1903742
1748914,1406874,1902734
1748638,1407266,1902070
1748008,1406970,1903888
1748100,1407085,1902886
1748002,1407247,1902776
1748037,1407077,1902921
1748338,1407196,1903435
1747657,1407030,1903351
1747466,1407759,1903971
1747165,1408014,1902406
1746700,1408097,1903496
1746814,1408356,1903325
1746990,1408334,1902896
1746952,1408538,1901632
1746611,1408748,1901391
1746801,1408620,1901192
1746582,1408487,1902035
1746766,1408451,1902063
1746939,1409058,1903273
1747147,1409546,1902419
1747709,1410342,1901893
1747713,1410737,1902814
1747695,1410849,1903039
1748130,1411242,1903707
1748451,1411089,1904032
1748304,1411633,1904260
1748665,1411386,1903462
1748254,1411140,1905379
1748996,1411728,1904538
1749252,1411892,1905461
1749625,1412263,1905633
1749931,1412832,1907175
1750191,1412751,1906711
1749884,1411445,1907059
1749848,1411367,1906756
1749778,1410762,1906946
1749399,1410776,1907815
1749205,1409925,1907821
1748519,1409402,1907190
1748445,1409427,1907804
1748375,1409428,1908118
1748022,1409051,1909523
1747876,1408694,1910980
1747258,1409294,1911003
1747345,1409541,1910916
1747316,1409391,1911400
1746843,1409569,1911501
1747113,1409929,1912135
1747132,1410175,1912766
1746894,1410244,1913422
1747130,1409696,1914955
1746716,1409475,1913901
1746762,1409322,1914632
1747044,1408828,1915589
1746980,1409588,1915654
1747211,1409706,1915596
1747070,1409971,1916216
1747318,1410298,1916939
1747333,1409961,1918105
1747362,1410059,1918684
1747615,1410326,1918494
1747970,1410383,1918121
1747592,1410076,1918891
1748186,1410364,1918856
1748456,1410614,1919295
1749004,1410799,1918755
1749305,1410971,1918755
1749690,1411400,1918536
1749456,1411799,1918674
1749739,1411487,1918648
1749901,1411395,1919336
1750430,1411406,1918971
1750039,1411458,1918516
1749782,1411513,1918632
1749504,1411268,1918611
1749904,1411228,1918201
1749452,1410868,1918237
1749546,1410669,1917554
1749195,1410288,1915135
1748600,1409527,1915933
1748435,1409135,1915607
1747673,1407926,1913510
1747310,1407887,1913939
1746386,1407579,1913216
1746000,1407112,1913458
1745877,1407367,1913359
1745861,1407381,1913708
1745574,1407297,1913687
1744972,1407713,1913139
1744465,1407674,1912426
1744523,1407777,1913697
1744654,1407782,1913105
1744562,1407826,1914169
1744684,1407957,1915148
1744717,1407772,1914750
1744458,1407374,1914286
1744461,1407665,1915602
1744332,1407617,1914860
1744394,1407807,1915664
1744508,1407853,1917612
1743996,1407739,1916318
1744063,1407642,1915927
1744288,1407952,1916130
1744269,1407908,1917359
1744423,1408049,1918347
1744505,1407965,1916880
1743995,1407533,1917106
1744068,1407819,1915299
1744153,1407980,1916504
1744536,1408197,1917218
1744082,1408466,1916465
1744262,1408479,1918859
1744293,1408612,1919398
1744543,1409041,1919118
1744285,1408966,1919523
1744323,1408847,1919686
1744431,1408546,1921105
1744528,1408608,1921544
1744624,1408975,1921248
1744817,1409215,1921444
1745821,1409709,1922218
1745324,1409717,1923992
1745316,1409832,1923007
1745528,1409966,1923128
1745121,1410234,1923122
1745604,1410341,1924260
1745613,1410852,1924294
1745475,1410910,1923624
1745475,1410957,1924183
1745676,1410767,1922685
1745758,1411134,1923299
1745830,1411656,1922762
1745845,1411464,1922503
1745805,1411457,1921888
1746174,1412124,1920971
1746299,1412719,1921930
1746636,1412597,1920888
1746414,1412811,1922023
1746840,1413653,1921001
1747003,1414152,1920040
1748059,1414556,1919548
1747951,1414465,1918981
1747498,1413736,1918415
1747300,1413257,1917965
1746792,1412798,1916706
1746307,1412195,1916879
1745987,1412002,1915655
1745653,1411800,1916776
1746402,1411831,1915630
1745679,1411789,1915402
1745401,1411944,1916174
1744624,1411927,1916744
1744077,1412309,1916638
1744337,1412794,1918587
1744131,1412713,1917893
1743865,1413070,1917869
1744094,1413676,1918224
1744128,1413704,1918773
1744181,1413547,1919991
1744023,1413485,1919602
1743288,1413450,1921434
1743654,1413175,1921004
1743919,1413731,1920085
1743475,1414415,1921432
1744285,1415234,1922375
1744439,1415449,1922734
1744992,1415936,1922336
1744724,1416366,1922336
1744898,1416276,1924425
1745049,1416714,1925784
1745270,1416918,1925451
1745368,1416683,1925615
1745441,1416811,1926632
1745642,1417218,1926632
1745691,1417382,1928293
1746279,1417407,1927764
1746742,1417437,1928807
1747173,1417979,1930189
1747342,1418500,1931082
1747416,1418646,1931854
1747941,1418819,1932710
1748555,1418665,1933269
1748663,1418940,1934885
1748695,1418608,1935201
1748237,1418661,1936830
1747718,1417795,1937392
1747550,1416552,1937893
1747356,1415400,1939667
1747040,1415501,1940114
1746622,1415512,1938709
1746168,1415341,1941237
1746770,1415373,1940885
1746681,1415251,1940973
1746531,1415154,1942074
1746549,1415223,1942363
1746622,1415090,1943762
1746461,1415193,1942312
1746725,1414976,1941244
1746768,1414928,1942456
1746787,1414820,1944034
1746537,1414389,1941741
1746613,1414150,1942648
1747168,1414555,1941653
1747106,1414473,1941725
1747233,1414344,1941068
1747106,1414679,1940979
1746959,1414868,1941069
1746916,1414765,1941961
1747161,1414653,1940285
1747434,1414670,1941172
1747381,1414936,1940527
1747574,1414649,1940780
1747507,1414560,1941022
1747472,1414884,1940737
1747980,1415264,1939598
1748446,1415391,1941448
1748947,1415470,1939440
1748932,1415402,1941875
1749187,1415756,1941855
1749556,1415789,1940786
1749552,1416026,1941713
1749606,1416167,1940987
1749342,1416332,1941389
1749546,1416307,1941145
1749709,1416231,1942185
1750199,1416404,1939600
1750119,1416556,1940733
1750442,1416144,1940171
1750319,1416104,1940223
1750507,1416349,1940476
1750571,1416293,1941388
1750090,1415803,1939976
1749513,1414532,1940989
1749316,1413383,1939892
1748381,1412411,1940178
1748381,1412610,1939446
1748307,1412689,1940395
1748014,1412592,1939036
1747516,1412626,1939621
1747446,1412530,1939820
1747253,1412633,1938917
1747308,1412520,1939487
1746884,1412480,1939411
1746951,1412148,1939649
1746588,1412158,1939608
1746650,1412201,1939301
1746795,1412180,1939224
1747182,1412251,1940020
1747049,1412124,1938746
1747040,1411853,1938362
1746959,1412024,1939989
1747118,1412100,1940390
1746788,1412092,1939000
1746550,1412431,1938918
1746131,1412496,1938732
1746131,1412702,1939306
1746249,1412506,1939000
1746166,1412476,1938138
1746100,1412252,1937755
1746149,1412231,1938256
1746314,1412407,1937662
1746244,1412113,1937398
1746178,1412031,1935507
1746140,1412132,1935049
1746327,1412195,1935323
1746168,1412694,1934423
1745909,1412742,1935032
1746015,1412618,1934614
1746021,1412848,1933352
1746256,1412762,1933200
1746371,1413017,1934329
1746923,1413150,1934473
1746959,1413109,1934219
1747124,1412966,1932915
1747192,1413281,1933993
1747111,1413459,1932780
1747391,1413656,1933917
1747353,1413920,1933562
1747463,1414063,1932762
1747463,1414287,1931423
1747234,1414528,1932148
1747005,1414815,1930013
1747080,1414569,1930529
1746773,1414578,1930659
1747583,1414471,1928228
1748086,1414652,1928349
1748122,1414803,1927120
1748210,1414970,1927694
1748817,1415510,1926056
1748959,1415941,1925794
1749486,1416590,1924732
1750088,1417382,1924309
1749984,1416844,1924004
1750352,1416959,1923093
1750412,1416464,1923226
1750514,1416734,1922776
1750438,1416273,1922485
1749610,1415644,1922902
1749285,1415868,1921482
1748561,1414198,1922093
1748411,1413566,1921775
1748136,1413282,1920596
1747417,1413698,1919667
1747417,1413458,1920767
1746811,1413102,1919309
1747112,1413313,1920262
1747295,1413443,1920262
1746640,1413905,1920789
1747078,1413844,1920456
1746690,1413825,1920579
1746738,1414001,1921958
1746871,1413612,1920569
1746418,1413913,1920217
1746654,1414408,1920815
1746678,1414774,1920296
1746532,1415258,1920612
1746747,1415583,1921666
1747346,1415685,1920658
1747151,1415975,1921179
1746913,1416552,1921589
1747763,1416541,1920540
1747059,1416554,1920215
1747501,1416712,1921047
1748189,1416965,1920900
1748352,1417962,1919932
1748794,1418177,1920337
1749324,1418444,1919661
1749390,1418857,1920120
1749626,1418630,1918941
1749197,1418876,1919297
1749731,1419379,1919116
1749728,1419640,1920016
1750080,1419919,1920524
1749983,1419719,1919642
1750765,1419917,1920203
1750714,1420163,1918070
1750590,1420123,1919053
1750016,1418474,1918401
1750140,1417379,1917760
1749705,1417531,1918787
1749673,1417081,1917396
1749427,1417127,1916891
1749020,1417522,1916041
1749134,1417708,1916019
1748816,1417698,1915611
1748827,1417813,1913717
1748671,1417939,1913110
1748767,1418317,1914465
1748819,1418827,1915734
1749089,1418528,1914822
1748622,1418263,1915903
1748654,1418514,1915790
1749008,1418462,1916282
1749082,1418681,1914698
1748474,1418724,1914088
1748499,1418701,1913701
1748477,1418781,1912673
1748331,1419036,1910915
1748903,1419169,1910492
1749150,1419618,1909652
1749444,1420115,1909850
1749638,1420568,1910041
1749943,1421007,1909494
1749989,1421209,1909342
1750373,1420686,1909712
1750224,1420948,1907561
1750481,1420870,1906424
1750428,1421398,1905459
1750260,1421346,1903515
1750555,1421244,1901876
1750671,1421355,1901080
1750779,1421292,1900925
1751138,1421436,1900925
1751241,1421375,1900289
1751368,1421207,1899322
1751635,1421279,1897954
1752014,1421251,1900532
1751900,1420533,1899272
1751413,1419150,1898462
1751245,1418979,1896889
1751029,1418053,1895186
1751140,1418049,1894819
1750809,1417776,1893964
1750407,1418060,1894976
1750166,1417817,1893825
1750155,1417676,1892802
1749981,1417554,1893091
1750188,1417547,1891556
1750132,1417495,1891624
1749871,1417296,1890132
1749737,1417041,1889804
1749688,1417308,1888686
1749470,1417297,1888541
1749893,1417393,1887380
1750003,1417299,1885579
1749651,1417325,1884194
1749772,1417075,1884229
1749781,1417318,1885252
1750030,1417282,1885215
1749801,1417601,1884822
1749371,1417655,1885089
1749371,1417792,1884430
1749170,1417529,1883487
1749374,1417658,1882979
1749172,1417403,1881886
1749355,1417173,1881994
1749589,1417134,1882387
1749258,1417186,1880230
1749046,1417013,1878919
1748991,1417040,1879322
1749248,1416802,1879061
1749241,1416972,1878279
1748974,1417099,1878246
