GREEN,RED,IR
1344673,1817397,1649632
1344817,1817440,1649837
1344670,1817713,1649900
1344720,1817505,1649253
1344990,1817256,1649414
1344961,1817511,1649237
1345195,1817576,1650182
1345128,1818897,1650166
1345116,1818659,1649247
1345411,1818058,1649662
1345895,1818151,1650316
1345831,1818130,1650151
1345685,1818415,1650419
1345376,1818084,1650241
1345303,1817733,1650483
1345467,1818280,1650323
1346029,1818075,1650593
1345748,1818048,1650155
1346228,1818376,1650820
1345996,1818466,1650535
1346481,1818696,1650105
1346789,1819589,1650855
1346760,1819730,1650899
1346718,1819972,1651346
1346997,1819993,1651336
1346642,1819998,1650946
1346684,1820228,1651253
1347051,1819890,1651606
1346899,1819791,1652060
1347080,1819433,1651687
1347020,1818786,1651824
1346930,1818902,1651334
1347280,1818193,1651211
1346973,1817722,1651581
1347286,1818208,1651356
1347513,1818146,1651117
1347690,1818345,1651638
1347591,1818648,1652645
1347120,1818794,1652777
1347167,1818511,1652334
1347450,1818334,1652182
1347448,1818318,1651606
1347347,1818460,1651589
1347370,1817922,1651837
1347301,1817756,1652427
1347351,1818013,1653255
1347569,1817989,1653516
1347988,1817984,1652873
1347873,1818112,1651991
1347829,1817825,1652332
1347844,1817968,1652397
1348122,1817815,1652166
1348291,1818052,1651164
1348117,1817636,1651144
1348111,1817585,1650837
1348173,1817630,1651881
1348099,1818131,1651337
1347940,1818378,1650631
1348017,1818454,1650863
1347937,1818151,1650425
1348330,1818005,1650971
1348264,1817700,1652011
1348753,1817524,1651632
1348544,1817778,1651954
1348786,1817713,1651624
1349048,1817859,1651526
1349233,1818135,1651944
1349204,1817538,1651538
1349229,1817852,1651371
1349396,1817886,1651765
1349160,1818575,1652402
1349076,1818791,1652564
1349000,1818783,1652424
1349127,1818714,1653468
1349380,1818581,1653563
1349246,1818746,1653488
1349341,1818374,1653187
1349258,1818290,1653352
1349687,1818502,1653072
1349764,1819140,1652844
1349797,1818901,1652718
1350163,1818289,1653274
1350201,1818609,1653216
1350150,1817995,1653770
1349929,1817500,1652667
1349887,1817808,1653249
1350332,1817510,1652501
1349900,1816904,1652878
1349924,1816564,1652639
1349863,1815961,1653103
1350322,1816548,1652554
1350183,1816020,1652232
1350314,1815827,1651822
1350463,1816171,1652303
1350507,1816050,1652511
1350469,1816061,1652685
1350635,1816071,1653171
1350422,1816352,1652700
1350268,1816255,1652698
1350384,1816065,1652360
1350510,1815921,1652727
1350373,1815973,1653101
1350569,1816070,1652670
1350538,1815889,1652737
1350302,1815641,1652944
1350523,1815973,1653109
1350839,1815827,1653138
1350834,1816008,1652941
1350997,1815917,1652831
1350831,1815758,1653001
1350895,1815106,1653233
1350979,1815177,1654163
1351343,1815447,1654505
1351312,1815424,1655144
1351296,1816112,1654791
1350886,1815681,1654798
1350847,1815519,1654743
1350714,1815354,1654762
1351083,1815358,1654672
1351152,1815611,1654377
1351368,1816064,1654470
1351268,1815133,1654309
1351151,1815277,1654546
1351339,1815360,1654433
1351451,1815462,1653547
1351739,1815635,1652708
1351821,1815217,1652793
1351868,1815047,1652449
1351967,1815036,1653023
1352363,1815286,1653561
1352080,1815301,1653191
1351521,1815532,1652464
1351995,1815360,1652708
1352021,1815530,1652577
1352182,1815897,1652166
1352103,1815321,1652390
1351963,1814656,1652358
1351823,1814602,1652702
1351992,1814958,1653203
1352236,1815231,1653688
1352910,1815145,1653695
1352757,1815065,1653314
1352600,1814591,1653430
1352623,1814718,1652803
1352775,1814431,1653582
1352834,1814881,1653960
1352844,1814407,1653688
1352351,1814474,1653512
1351659,1813921,1654505
1352661,1813614,1653981
1353360,1813891,1654356
1352981,1814328,1654114
1353155,1815000,1653810
1352797,1814400,1653668
1352842,1814640,1653964
1353133,1814427,1655079
1353009,1814906,1654802
1352711,1814926,1655020
1352881,1814859,1654469
1353029,1814264,1655070
1353216,1813799,1655650
1353238,1813586,1655831
1353502,1813530,1655741
1353483,1813081,1655606
1353733,1813259,1655606
1353499,1813018,1655425
1353821,1813221,1655183
1353857,1813020,1654954
1353919,1812620,1655508
1353678,1812875,1655976
1353886,1812759,1655861
1353886,1812532,1655494
1354020,1812928,1654871
1354183,1812435,1655885
1354350,1812400,1655606
1354263,1812589,1656171
1354305,1812051,1656044
1354498,1812538,1655940
1354721,1812381,1655535
1354684,1812304,1656161
1354460,1812826,1656189
1354305,1812668,1656087
1354538,1812959,1655622
1354642,1812581,1656030
1354831,1812477,1656566
1354822,1811778,1655734
1354958,1811574,1655560
1354924,1811321,1654905
1354709,1811079,1654818
1355026,1811010,1654493
1355224,1810779,1654270
1355143,1810830,1654064
1354783,1810799,1654744
1354824,1810728,1654406
1354832,1810701,1654082
1354958,1810868,1654665
1355105,1810755,1654454
1355134,1810389,1654533
1354949,1810446,1654937
1354959,1810711,1654597
1355103,1810977,1653799
1355475,1810914,1654050
1355462,1810710,1654603
1355260,1810621,1654830
1355508,1810630,1654160
1355445,1810727,1654624
1355454,1810829,1654778
1355325,1811402,1654749
1355295,1811415,1653943
1355295,1811548,1653705
1355347,1811598,1653489
1355500,1811445,1653960
1355312,1811370,1654326
1355498,1811156,1653678
1355510,1810826,1653368
1355573,1810837,1653988
1355641,1811124,1654022
1355629,1811022,1652967
1355686,1810762,1653379
1355712,1810461,1653829
1355717,1810366,1653666
1355579,1810078,1653032
1355797,1810129,1652905
1355742,1810047,1653266
1356076,1810130,1653337
1356080,1810013,1653214
1356113,1809851,1652521
1356128,1809918,1653075
1356065,1810097,1653907
1356391,1810259,1653615
1356506,1810532,1654187
1356427,1810308,1654232
1356066,1810557,1654211
1356289,1810128,1654336
1356039,1810233,1654171
1356245,1810480,1654603
1356752,1810536,1654824
1356323,1810037,1654820
1356349,1810328,1655029
1356761,1810083,1655067
1356923,1810605,1654990
1357056,1810451,1655063
1356592,1810611,1654774
1357114,1810754,1654585
1357229,1810609,1654558
1357379,1810918,1654415
1357248,1810190,1654475
1357118,1810334,1654722
1357531,1810171,1654090
1357299,1810071,1654696
1357257,1810574,1655499
1357325,1809941,1655367
1357432,1809680,1655595
1356892,1808907,1654437
1357047,1808878,1654434
1357341,1808745,1654427
1357072,1808569,1654421
1357462,1809538,1654682
1357249,1808893,1654940
1357412,1808539,1655023
1356993,1809382,1654748
1356922,1809141,1654045
1356759,1808799,1654200
1357337,1808336,1653733
1357090,1808297,1654213
1357299,1808433,1653741
1357245,1808073,1654016
1357403,1808296,1653619
1357637,1808154,1654286
1357645,1807396,1654047
1357720,1807447,1654040
1357181,1807326,1653275
1357859,1807438,1653627
1357853,1807506,1653535
1357596,1807790,1653543
1358035,1807461,1654083
1357767,1807555,1654457
1358081,1807888,1654248
1358012,1807716,1654350
1358257,1807458,1653813
1358442,1808083,1654115
1358344,1807568,1653777
1358385,1807470,1653267
1358544,1807704,1652965
1358647,1807638,1653267
1358419,1807888,1653430
1358258,1807728,1653794
1358418,1807808,1653059
1358638,1807779,1653198
1358718,1807694,1652742
1358610,1807641,1652760
1358893,1807417,1653464
1359045,1807428,1652668
1358815,1806677,1652526
1359079,1806975,1652926
1359130,1806489,1652145
1359188,1806683,1652882
1359161,1806173,1653125
1358879,1805852,1653499
1358863,1805708,1653088
1358841,1805969,1653522
1358815,1806276,1653766
1358795,1806341,1654078
1358944,1805930,1654373
1359175,1806062,1653835
1358910,1805789,1653762
1359109,1805942,1653621
1358603,1805794,1653818
1358802,1805803,1654821
1359103,1805853,1654353
1358966,1805665,1654348
1359290,1805352,1653943
1359201,1805495,1653947
1359331,1805836,1654483
1359141,1805090,1655161
1359384,1805229,1654679
1359560,1805364,1654565
1359278,1805609,1654882
1359029,1805702,1654995
1359576,1805318,1655552
1359372,1805241,1655253
1359289,1805457,1655396
1359314,1805209,1655085
1359368,1804920,1654905
1359440,1805222,1654801
1359471,1805022,1654034
1359501,1804823,1654454
1359839,1804901,1653619
1359833,1804799,1653644
1359890,1804871,1653869
1360047,1804779,1654681
1360127,1804934,1654817
1360216,1804772,1654811
1360182,1805090,1654561
1359904,1805423,1654419
1359838,1805303,1653939
1360163,1805157,1654934
1360109,1805221,1654115
1360271,1805249,1653378
1360375,1804948,1653657
1360205,1804608,1654040
1359970,1804651,1654233
1360377,1804461,1654586
1360464,1804649,1654516
1360529,1804325,1654918
1360476,1804683,1654796
1360752,1804056,1654867
1360181,1804223,1655018
1360511,1804210,1654719
1360503,1804288,1654507
1360382,1804006,1654279
1360382,1803645,1654204
1360207,1803679,1654926
1360065,1803434,1655065
1360726,1803586,1654830
1360406,1803953,1654419
1360121,1803217,1653516
1359901,1803526,1652997
1360033,1803628,1652396
1360066,1803827,1652312
1360125,1803900,1651347
1360077,1804045,1651477
1360143,1804167,1651519
1360016,1803924,1651299
1360380,1803930,1651651
1360411,1803602,1651061
1360190,1803330,1651155
1360313,1803338,1651841
1360403,1803372,1651620
1360302,1803005,1652387
1360031,1802981,1651813
1360373,1802294,1652018
1360166,1802325,1651610
1360300,1802097,1651076
1359904,1802483,1652167
1360435,1803033,1652081
1360421,1802765,1652698
1360471,1802605,1652422
1360696,1803043,1653135
1360753,1803279,1653274
1361258,1803185,1653773
1360914,1803263,1654321
1360695,1802874,1654115
1360810,1803104,1653063
1360833,1803177,1652988
1360829,1803470,1653371
1360945,1803142,1653209
1360929,1803116,1653702
1361279,1802879,1653823
1361302,1803110,1654013
1361137,1802246,1654286
1361499,1803393,1654359
1361464,1802427,1655132
1361234,1802090,1654819
1361078,1801632,1654691
1360763,1801382,1653453
1360910,1800782,1653825
1360911,1800567,1653166
1361072,1801030,1653538
1360901,1800538,1653961
1360724,1800694,1653769
1361038,1800021,1652777
1360864,1800045,1653439
1361025,1800677,1653195
1360961,1801129,1653603
1360965,1801394,1652358
1361053,1802053,1652329
1360916,1802296,1652222
1361043,1802826,1651467
1360835,1802795,1652793
1361074,1803767,1651947
1361260,1806039,1651688
1361041,1805696,1651643
1361284,1804405,1651719
1361459,1803899,1651520
1361242,1803286,1651824
1361426,1803453,1651616
1361528,1802971,1650563
1361725,1803189,1651483
1361524,1802849,1651871
1361571,1802779,1652342
1361517,1803272,1652417
1361717,1803670,1652284
1361720,1803299,1651894
1361927,1803606,1652324
1361913,1803808,1651704
1362136,1803074,1651338
1362535,1802263,1650858
1362171,1801583,1650423
1362269,1801522,1650709
1362296,1801191,1650782
1362201,1801373,1650985
1362551,1800757,1652277
1362260,1800522,1651368
1362218,1800479,1651547
1362066,1799961,1651707
1361935,1799957,1650917
1362012,1799551,1651584
1361935,1799569,1651880
1361794,1799707,1651952
1362032,1799360,1651518
1361499,1798885,1651525
1361779,1798916,1651716
1361770,1798435,1652282
1361747,1798220,1652933
1361566,1798138,1652788
1361681,1798315,1652040
1361767,1798300,1651753
1361511,1798083,1652237
1361557,1798029,1652119
1361679,1798108,1651804
1361730,1798402,1651618
1361828,1798668,1651415
1361860,1798849,1651584
1361765,1799176,1651520
1361741,1798961,1652259
1361617,1798581,1651680
1361810,1798300,1653059
1362088,1798347,1653181
1361990,1798579,1653198
1362091,1798292,1652939
1361709,1798253,1652313
1361689,1798194,1652201
1361755,1798190,1651574
1361016,1797882,1651423
1361619,1797210,1651835
1361714,1797493,1651130
1362161,1797943,1651211
1361989,1797751,1651414
1361887,1797501,1652409
1362324,1798037,1651951
1362280,1797842,1652047
1362425,1797842,1652032
1362567,1798210,1652607
1362056,1798664,1652888
1362183,1798582,1652958
1362059,1798774,1652361
1362111,1798698,1652630
1361492,1798662,1652027
1362228,1798436,1652098
1362230,1798013,1651654
1362215,1798315,1652358
1362315,1798006,1652145
1362714,1797790,1652171
1362997,1797484,1651728
1362492,1797097,1652153
1362308,1796423,1652102
1362457,1796129,1652606
1362406,1795728,1653126
1361600,1795695,1653155
1362177,1795536,1653011
1361662,1794686,1653168
1361740,1794988,1652946
1361826,1795143,1652808
1361665,1795415,1652300
1361716,1795670,1652507
1361598,1795906,1652743
1361612,1795907,1653797
1361430,1795994,1654035
1361643,1796502,1653535
1361525,1796228,1653956
1361445,1796347,1653641
1361296,1795781,1653487
1361389,1795676,1653498
1361276,1795565,1653443
1361438,1795567,1653514
1361599,1795382,1653501
1361637,1795261,1653714
1361555,1795346,1653408
1361739,1795207,1654002
1362368,1795428,1653783
1361677,1795504,1653571
1361677,1795499,1654086
1361270,1795361,1653658
1361233,1795387,1653697
1361431,1795250,1653251
1361321,1795378,1653087
1361319,1794958,1653953
1361093,1794887,1654243
1361307,1794645,1654104
1361302,1795050,1653878
1361401,1795089,1654367
1361173,1795604,1654244
1361306,1794267,1653575
1361397,1794115,1654524
1361556,1794492,1654576
1361736,1794841,1654775
1361408,1794842,1654946
1361557,1795164,1653885
1361791,1795396,1654010
1361733,1795541,1654521
1361755,1795527,1654705
1361404,1795174,1654713
1361785,1795344,1653360
1361773,1794983,1653353
1361658,1794902,1652790
1361987,1794539,1653008
1361984,1794843,1652095
1361800,1793935,1652013
1362100,1793739,1651924
1362133,1793436,1652129
1361485,1793322,1652394
1361439,1792889,1652488
1361418,1792702,1651911
1361328,1792433,1652197
1361175,1791874,1651779
1361193,1791270,1651698
1360938,1791585,1651608
1361080,1790831,1651813
1360982,1790446,1652281
1361055,1790772,1651958
1361013,1790467,1652234
1360862,1790329,1652262
1361163,1790478,1653110
1361161,1790712,1652651
1360716,1791013,1652518
1360967,1791251,1652303
1360966,1790870,1652405
1360949,1791120,1652963
1360986,1791065,1651832
1361011,1790737,1651669
1360872,1790541,1651912
1360953,1790353,1652006
1360933,1790515,1652237
1361019,1790646,1652530
1360926,1790549,1652597
1361108,1790453,1652714
1361228,1790578,1652356
1361121,1790819,1652479
1361202,1790253,1652684
1361481,1790562,1652340
1361377,1790207,1652550
1361586,1790095,1652663
1361206,1790235,1652887
1361034,1790494,1653182
1360795,1790279,1653316
1361029,1789939,1653299
1361189,1790114,1653578
1361352,1790217,1653305
1361182,1790342,1653454
1361336,1789958,1653581
1360748,1790290,1654068
1361198,1790144,1653831
1361491,1790167,1654119
1361699,1790431,1653947
1361584,1790218,1654373
1361723,1790158,1654134
1361606,1790483,1654553
1361883,1790242,1654304
1361809,1790736,1654254
1361642,1790668,1654772
1361642,1790553,1654528
1361479,1790948,1654332
1361688,1790922,1654613
1361704,1791006,1653942
1361673,1790665,1653773
1361563,1790337,1653501
1361909,1790516,1653405
1361951,1790589,1653532
1361961,1790551,1653186
1361952,1790540,1652975
1362101,1790080,1652108
1361840,1789559,1652199
1361972,1788750,1651892
1361596,1788261,1652782
1361040,1787459,1652239
1361592,1787742,1652434
1361512,1787709,1652279
1361693,1787942,1652559
1361472,1787972,1652603
1361384,1787972,1651764
1361054,1787012,1651574
1361090,1786352,1652257
1360962,1785627,1651192
1361205,1785847,1651906
1360735,1785563,1651916
1361045,1784593,1651619
1361000,1784354,1651884
1361113,1783954,1652237
1361581,1784146,1651832
1360853,1784217,1652517
1360848,1783914,1652661
1361013,1783224,1652691
1360671,1783293,1653034
1360897,1783117,1653828
1360989,1783544,1654342
1361501,1784971,1653534
1360938,1784302,1653305
1361157,1784081,1652982
1361572,1784264,1653959
1361501,1783872,1653571
1362142,1783997,1653089
1361818,1784209,1653089
1361446,1784455,1651970
1361508,1784145,1652869
1361903,1784201,1652964
1361970,1784198,1652835
1361892,1784505,1653296
1361690,1784343,1653735
1361643,1784636,1652408
1361875,1785095,1652840
1361932,1785447,1652581
1362134,1785715,1652873
1362124,1786388,1653409
1362420,1785877,1653944
1362384,1786044,1652837
1361526,1786240,1653015
1362143,1786320,1653086
1361993,1786519,1652163
1361993,1786413,1652613
1361932,1786635,1652832
1362099,1786100,1653159
1362287,1786200,1652969
1362334,1786321,1653971
1362177,1785826,1654038
1362056,1785808,1652866
1362326,1785526,1652527
1362234,1785525,1652572
1362199,1785465,1651711
1362193,1785226,1651790
1362180,1784513,1650934
1361844,1784052,1652281
1362049,1784047,1651601
1361986,1783674,1651485
1362013,1783653,1651226
1362080,1783340,1650552
1362065,1783192,1650552
1361870,1782855,1650826
1361891,1782892,1650527
1361985,1782880,1650406
1361793,1782968,1650538
1361506,1782913,1650465
1361506,1782781,1651253
1361411,1782898,1651958
1361466,1782577,1651726
1361493,1782867,1651028
1361505,1782451,1651472
1361170,1782043,1651236
1361348,1781834,1650895
1361683,1781664,1650957
1361273,1781853,1650743
1361396,1782109,1650672
1361319,1781773,1651173
1361222,1781549,1651448
1361253,1781754,1651074
1361471,1781894,1650895
1361049,1781662,1651115
1361124,1781071,1651155
1361492,1781271,1651036
1361657,1781421,1650750
1361472,1781216,1650805
1361460,1781407,1650614
1361198,1781552,1651101
1361348,1781457,1651004
1361437,1781340,1651030
1361617,1781430,1651435
1361342,1781145,1651526
1362033,1780762,1651767
1361760,1780758,1652086
1361860,1780121,1651929
1362111,1780676,1652288
1362087,1780150,1652711
1362068,1780182,1652237
1361997,1780444,1652187
1361839,1780388,1652156
1362060,1780515,1652499
1362145,1780263,1652933
1362144,1780784,1651804
1362434,1781517,1652270
1362484,1781478,1651755
1362834,1781472,1650954
1362722,1781057,1650951
1362432,1780040,1650712
1362730,1779925,1650554
1362822,1779546,1649302
1362620,1779461,1649455
1362361,1779101,1649480
1362228,1778333,1649554
1361949,1777851,1648813
1361970,1776599,1648461
1362169,1776259,1648126
1361890,1776446,1648542
1362103,1776559,1648905
1361964,1776728,1649206
1361740,1776041,1648707
1361964,1776506,1648138
1362129,1776522,1647505
1361406,1776867,1647883
1362001,1777000,1648092
1361933,1776964,1647711
1361875,1777152,1648127
1361817,1777422,1648478
1361131,1776976,1648400
1361720,1776641,1649301
1362273,1776709,1649032
1361863,1776295,1648463
1362124,1776172,1648395
1362198,1776420,1648153
1362123,1776100,1648325
1362393,1775924,1647703
1362038,1775924,1647145
1362034,1776043,1647196
1362398,1775999,1646420
1362368,1775660,1646670
1362236,1775845,1646736
1362363,1775656,1646184
1362751,1776169,1646187
1362626,1775648,1646175
1362815,1776223,1645827
1363114,1776827,1645828
1362834,1776805,1645828
1363053,1776813,1645423
1362959,1777783,1644365
1363367,1776793,1644359
1362718,1776650,1644102
1363347,1776811,1645176
1364089,1776868,1644485
1363570,1776923,1644844
1363204,1776024,1644811
1362810,1774800,1644661
1362887,1774616,1643740
1362837,1775090,1642918
1362741,1774853,1642481
1362572,1774383,1642270
1362247,1774069,1642004
1362576,1774263,1642381
1362607,1774094,1643106
1362490,1773842,1643945
1362378,1774027,1643642
1362694,1774699,1642941
1362258,1774080,1643364
1362638,1774603,1643507
1362624,1774459,1643765
1362672,1774844,1642745
1362382,1774798,1642673
1362432,1774770,1642473
1362463,1774769,1642066
1362604,1774588,1642285
1362542,1774460,1642155
1362686,1774463,1641824
1362400,1773920,1642011
1362610,1774168,1641334
1362735,1774568,1642336
1362975,1774428,1642067
1363029,1774177,1642578
1363038,1774251,1642880
1363021,1773988,1642351
1363347,1773974,1642225
1363275,1774179,1642647
1363157,1774313,1643215
1362976,1774185,1642828
1363077,1774332,1642556
1363032,1774028,1643104
1363239,1773941,1643368
1363217,1773778,1643115
1363496,1773430,1643112
1363224,1773213,1642493
1363377,1773545,1642519
1363437,1773621,1642165
1363698,1773664,1642101
1363673,1773720,1642536
1363658,1773636,1641535
1363907,1773785,1641900
1363778,1774065,1641795
1363720,1774269,1641545
1363560,1774494,1641195
1364027,1774162,1641649
1364176,1774367,1641778
1363935,1774221,1641419
1364247,1773955,1641514
1364265,1774088,1641499
1363957,1774210,1642154
1363900,1774028,1643297
1364057,1774095,1643033
1364143,1773724,1643148
1364150,1773900,1643231
1364281,1773386,1644068
1364139,1772892,1643832
1364150,1772708,1644179
1364139,1772430,1643730
1364202,1772084,1642574
1364204,1771852,1643025
1364033,1771582,1642799
1363925,1771262,1642573
1363805,1771298,1642853
1363974,1771425,1642090
1363619,1771582,1642205
1363549,1771439,1641537
1363549,1771583,1641501
1363590,1771637,1641539
1363568,1771677,1641226
1363540,1771696,1641711
1363569,1771554,1641630
1363696,1771254,1642361
1363566,1771503,1641478
1363582,1771484,1641755
1363704,1771286,1641717
1363543,1771498,1641396
1363534,1771431,1641358
1363389,1771172,1641825
1363424,1771340,1642309
1363418,1771912,1641851
1363687,1771887,1640828
1363775,1771914,1640817
1363748,1771209,1640978
1363774,1771302,1641233
1363910,1771521,1640810
1363667,1771433,1640634
1363839,1771209,1640360
1363423,1771467,1639854
1363451,1771806,1639806
1363451,1771363,1639723
1363514,1770871,1640407
1363468,1770983,1639661
1363675,1771198,1638652
1363643,1770833,1638943
1363403,1770770,1638983
1363477,1770865,1639713
1363660,1770358,1640056
1363739,1770903,1639068
1363728,1771099,1638567
1363987,1770712,1637866
1363750,1770049,1638700
1364077,1770007,1638553
1364000,1769811,1638296
1364247,1769470,1638311
1364341,1769971,1638362
1364635,1770071,1638742
1364367,1770277,1638798
1364365,1770717,1639023
1364350,1770433,1639512
1364675,1770673,1639884
1364852,1770792,1640109
1363781,1770567,1640340
1364908,1771025,1640366
1365481,1770232,1639687
1364880,1770117,1639651
1365023,1770428,1639569
1364966,1770170,1639240
1365151,1770160,1640074
1365222,1769510,1640477
1364733,1768781,1639617
1364629,1768684,1639896
1364385,1768453,1639215
1364338,1769254,1639630
1364337,1768771,1639595
1364434,1768251,1639767
1364312,1768385,1639249
1364284,1768062,1639300
1364224,1768303,1639746
1364398,1768445,1638705
1364115,1768448,1638242
1364141,1768742,1638200
1364151,1768456,1638462
1364181,1768571,1638840
1364294,1768283,1638929
1363999,1767762,1639532
1364270,1767835,1639573
1364251,1767865,1639284
1364294,1767084,1638930
1364379,1767534,1639263
1364552,1767358,1639389
1364392,1767316,1639745
1364269,1766829,1639351
1364076,1766660,1638839
1364426,1765997,1638724
1364381,1765727,1639212
1364380,1765705,1639385
1364148,1765193,1639574
1364259,1765710,1639729
1364351,1766421,1640253
1364855,1766925,1640418
1364715,1767041,1640607
1364701,1766607,1640342
1365021,1766584,1639964
1365026,1766456,1639893
1365057,1766215,1639907
1364885,1766427,1640408
1365174,1765851,1640277
1365146,1765804,1640773
1365341,1766067,1640560
1365070,1765991,1640276
1365230,1765434,1640128
1364936,1764992,1639690
1364808,1764384,1640122
1364565,1764461,1639799
1364490,1764408,1639436
1364553,1764918,1639442
1364575,1765052,1638826
1364493,1765006,1639605
1364396,1764809,1639868
1364501,1765149,1639883
1364431,1765140,1639851
1364572,1765076,1639740
1364253,1764794,1640245
1364419,1765245,1640537
1364308,1765238,1640125
1364576,1765180,1639766
1364599,1765431,1639600
1364454,1765499,1640195
1364433,1765344,1640886
1364530,1765775,1641006
1364308,1765853,1641486
1364383,1766335,1641469
1364288,1766336,1640716
1364288,1766232,1641306
1364190,1765931,1641073
1364182,1765915,1642017
1364378,1765804,1642141
1364348,1765537,1641863
1364307,1765256,1641557
1364254,1765211,1641922
1364190,1765424,1642594
1364211,1765372,1642115
1364274,1765577,1641009
1364298,1765496,1641289
1364177,1765342,1641588
1364251,1765614,1641312
1364457,1765656,1641446
1364411,1765816,1641628
1364588,1765707,1641030
1364303,1765664,1642163
1364376,1765291,1642775
1364637,1765571,1643294
1364711,1765828,1643765
1364479,1766123,1643282
1364500,1766179,1643938
1364500,1766123,1643353
1364563,1766386,1643922
1364858,1766323,1644177
1364732,1766179,1644607
1364872,1766289,1643916
1365142,1766481,1644275
1364807,1766474,1644351
1364531,1766290,1645121
1364812,1766161,1645463
1364833,1766082,1645533
1364778,1766241,1645518
1365023,1766247,1646363
1364761,1766077,1646005
1364729,1766261,1645860
1364788,1766201,1646250
1365457,1766253,1646230
1365492,1766333,1646161
1365341,1766404,1645580
1365409,1766168,1646157
1365470,1766478,1646531
1365565,1766290,1646737
1365387,1766728,1646911
1365312,1766653,1647566
1365312,1766354,1647891
1365399,1766330,1648177
1365366,1766405,1648984
1365413,1766557,1649213
1365516,1765924,1649699
1365588,1765785,1649341
1365325,1765531,1648830
1364968,1765181,1648486
1364824,1764431,1648630
1364716,1763841,1648125
1364569,1763833,1647934
1364284,1763865,1648007
1364553,1764251,1648393
1364264,1763533,1647965
1364330,1764173,1648552
1364389,1764141,1648627
1364236,1764246,1648052
1364004,1763529,1648177
1364506,1763819,1648384
1364403,1763780,1648722
1364245,1763671,1647679
1363991,1763099,1647200
1363892,1763226,1646949
1364086,1763132,1648248
1363797,1762232,1648336
1364055,1762565,1648470
1364106,1762444,1648698
1364117,1762235,1648280
1364176,1762507,1648429
1364291,1762799,1648840
1364459,1762805,1648864
1364155,1762873,1648503
1364406,1763068,1648472
1364290,1763363,1648813
1364626,1764115,1649101
1364687,1764052,1648808
1364903,1764115,1649213
1364878,1764502,1649728
1364957,1764381,1650396
1364880,1764289,1650072
1365610,1764440,1650302
1364920,1764571,1650851
1364920,1764211,1650189
1365048,1764240,1650032
1365059,1764212,1650223
1365072,1763720,1650679
1365005,1763313,1650531
1364926,1762629,1651009
1364806,1762139,1650703
1364517,1761570,1650980
1364436,1761884,1650970
1364350,1761871,1650799
1364306,1761987,1651466
1364075,1762147,1651784
1363946,1762057,1652394
1363914,1762281,1652823
1363862,1762430,1653029
1363646,1762422,1652728
1363765,1762698,1653223
1363536,1763198,1653335
1363874,1764310,1653109
1363403,1764243,1652902
1363402,1763895,1655209
1363628,1763607,1656362
1363631,1763222,1656518
1363316,1762878,1655869
1363306,1762546,1657085
1363443,1762278,1658271
1363201,1762510,1657991
1363213,1762588,1657970
1363424,1762744,1657821
1363316,1762622,1657821
1363509,1763554,1658059
1363514,1764620,1657590
1363758,1764984,1656963
1363746,1765151,1656789
1363938,1766025,1656489
1363590,1766272,1656565
1363660,1766232,1657094
1363520,1766114,1656952
1363766,1765896,1656626
1363800,1766214,1656849
1363783,1765806,1657173
1363782,1765544,1657471
1363912,1766003,1657366
1364015,1766338,1656640
1364011,1766620,1657124
1364174,1766936,1657041
1364458,1767135,1657323
1364257,1767007,1657045
1364723,1766145,1656622
1364487,1765948,1657076
1364646,1765492,1657508
1364430,1765267,1657716
1364696,1765026,1657715
1364488,1765190,1657653
1364034,1764812,1657869
1363769,1764116,1657242
1363859,1763663,1657690
1363642,1763642,1657715
1363669,1763134,1657839
1363581,1762718,1657974
1363362,1762177,1657986
1363145,1762430,1657055
1363213,1762340,1657318
1363315,1762441,1656977
1363321,1762390,1657130
1363144,1762467,1656076
1363003,1762474,1656110
1363139,1762849,1656298
1363074,1762837,1656621
1362888,1763424,1656827
1362606,1763409,1656820
1362606,1763285,1656943
1362584,1763205,1656902
1362573,1763294,1657032
1362528,1762684,1656976
1362689,1762871,1657151
1362449,1762740,1657898
1362619,1763256,1656966
1362468,1763612,1658014
1362689,1763508,1657766
1362513,1763542,1658549
1362622,1763364,1658903
1362305,1762804,1658735
1362246,1762820,1658690
1362213,1762569,1659009
1362537,1762585,1658830
1362378,1762599,1660059
1362273,1762298,1659933
1362471,1761964,1659688
1362292,1761778,1660607
1362219,1761489,1660934
1362378,1761525,1660925
1361978,1761459,1661206
1361978,1761494,1660278
1362033,1761533,1660421
1362018,1761761,1660480
1362154,1762134,1661966
1362205,1762385,1661966
1362533,1762365,1662068
1362276,1763216,1661739
1361976,1762755,1661252
1362160,1762603,1661480
1361783,1762579,1661040
1362252,1762857,1661280
1362253,1762909,1660320
1362332,1762758,1660273
1362189,1762781,1659968
1362401,1763077,1659797
1362937,1763008,1660530
1362858,1763072,1660351
1362718,1763279,1660362
1362780,1762826,1660001
1362651,1762937,1660656
1362508,1762992,1661072
1362737,1763474,1660604
1362638,1763460,1661234
1362638,1763454,1660876
1362512,1763463,1661615
1362626,1763496,1661280
1362563,1763815,1662436
1363066,1763564,1662527
1362777,1764070,1662695
1362733,1763432,1662422
1362587,1763249,1662929
1362685,1763075,1663345
1362972,1762722,1663710
1363252,1762397,1663937
1362786,1762381,1663525
1362439,1761432,1664231
1361724,1760694,1664543
1361948,1760847,1664273
1362017,1760589,1664983
1361968,1761042,1664700
1361599,1760862,1664698
1361074,1760956,1664101
1361261,1761138,1665342
1361232,1761181,1665962
1361103,1761487,1665837
1361646,1761619,1666209
1360451,1761635,1666231
1360827,1761511,1666636
1360507,1761442,1666918
1359973,1760887,1666865
1360188,1761665,1666865
1360240,1761062,1666760
1359950,1760899,1666959
1359845,1760821,1667469
1359778,1760584,1668104
1359672,1760408,1667993
1359907,1760664,1668198
1359582,1760756,1667974
1359868,1760910,1667890
1359926,1760757,1667897
1359906,1760950,1668005
1360078,1760914,1668795
1360166,1761196,1669252
1360601,1761151,1669403
1361143,1760400,1668615
1361342,1759985,1667843
1361572,1760066,1667988
1361878,1759709,1668259
1362300,1760157,1668337
1362572,1759668,1668096
1362606,1758973,1668422
1362897,1759382,1669262
1362903,1759151,1668511
1362826,1758775,1668951
1362874,1758783,1668200
1362777,1757945,1668904
1362657,1757637,1669353
1362233,1756561,1669609
1361656,1756013,1670081
1361792,1756367,1670233
1361426,1756176,1670380
1360890,1755921,1669903
1361074,1756063,1669674
1360813,1755697,1670057
1360924,1755889,1669313
1360662,1755905,1669188
1360659,1756232,1669420
1360999,1755880,1669106
1360771,1755732,1669669
1360616,1755794,1669455
1360623,1755638,1669692
1360748,1755565,1669644
1360558,1755455,1669835
1360430,1754806,1670244
1360459,1755239,1670939
1360609,1755298,1670790
1360525,1755242,1671128
1360577,1755741,1670962
1360690,1755546,1670952
1360574,1755190,1671115
1360673,1755461,1670802
1360534,1755436,1670382
1360698,1755331,1670740
1361011,1755193,1671060
1361126,1755504,1670978
1361017,1755297,1671614
1361359,1755459,1672008
1361715,1755770,1671910
1361691,1755390,1672188
1361514,1755520,1671924
1361712,1755640,1672491
1361674,1755766,1673003
1361561,1755777,1672783
1361588,1755648,1672613
1361660,1755505,1672970
1361690,1755522,1672937
1361686,1754600,1672881
1361160,1753671,1673081
1360964,1753203,1673122
1360558,1753046,1673573
1360861,1753108,1673564
1360522,1753486,1673456
1360380,1753189,1674178
1360499,1753316,1674607
1360484,1753212,1674124
1360150,1753537,1674224
1360036,1753459,1673911
1360163,1753415,1674407
1360202,1753064,1674333
1360179,1753401,1674227
1360194,1753681,1674776
1360064,1753617,1674773
1360087,1754398,1674816
1360250,1754014,1675193
1360288,1753788,1675256
1360000,1753918,1674957
1360629,1753669,1674805
1360598,1753381,1675206
1360587,1753149,1674812
1360596,1753292,1675613
1360394,1753343,1674839
1360910,1753424,1674677
1360910,1753146,1674878
1360446,1753291,1674310
1360214,1752919,1674955
1360332,1753091,1674850
1360351,1752854,1675065
1360151,1752291,1675628
1360281,1752502,1675138
1360373,1752436,1675856
1360374,1752530,1675713
1360521,1752682,1676313
1360308,1753048,1675499
1360395,1753711,1675448
1360823,1754640,1675175
1361136,1754849,1675118
1360804,1753868,1675103
1360988,1753517,1674682
1361069,1753134,1674237
1361193,1752495,1673919
1361100,1752516,1673752
1360898,1751806,1674027
1360725,1751246,1674153
1361082,1750073,1675035
1360953,1750726,1674018
1360919,1749327,1674065
1360466,1748614,1674277
1360180,1748043,1675084
1359556,1748199,1675202
1359471,1748160,1675393
1359482,1748192,1675564
1359657,1748134,1675238
1359287,1748606,1675307
1359482,1748174,1676119
1359284,1747901,1676314
1359041,1748476,1675737
1359229,1748794,1676010
1358902,1748970,1676380
1359105,1748858,1676241
1358977,1749175,1675801
1358957,1749366,1676445
1358924,1748986,1676388
1358855,1749226,1675919
1358842,1749108,1675804
1358831,1749517,1676045
1358639,1749709,1676160
1359027,1749440,1676063
1358547,1749121,1675309
1358677,1749471,1675281
1358743,1749500,1675888
1358624,1749163,1675863
1358959,1749507,1676108
1358985,1749818,1675896
1359216,1749796,1675110
1359735,1750154,1675779
1359584,1750792,1676546
1359632,1750350,1676056
1359519,1750537,1675892
1359422,1750760,1675930
1359628,1750885,1675786
1359925,1750077,1675688
1359785,1750299,1675913
1359807,1750064,1675975
1359731,1749950,1675601
1359487,1749956,1675389
1359803,1749883,1676162
1359569,1749702,1676052
1359669,1749783,1676249
1359339,1749406,1676614
1358988,1749336,1676160
1358272,1748678,1676292
1358349,1749064,1676431
1358294,1749001,1676657
1357829,1749125,1676569
1357485,1749541,1677099
1357648,1749249,1676383
1357238,1749096,1677152
1357019,1749201,1676957
1356578,1748884,1677460
1356780,1749009,1677573
1356250,1748988,1677459
1355915,1748233,1677622
1356255,1748620,1676671
1356303,1748302,1676469
1356132,1747921,1676558
1356130,1748105,1676776
1356075,1747959,1676505
1355859,1747310,1676362
1355990,1747656,1675854
1355977,1748045,1675961
1355952,1747844,1675975
1355929,1748155,1675923
1356112,1748532,1675819
1356075,1748110,1676237
1356353,1748016,1676055
1357049,1747885,1676411
1356475,1747753,1676092
1356421,1747959,1676540
1356564,1747624,1675530
1356455,1748153,1676123
1356501,1748090,1676229
1356549,1747920,1676894
1356600,1748105,1676294
1357099,1748887,1675727
1356563,1748500,1676260
1357022,1748371,1676651
1357313,1747836,1676900
1356790,1747738,1677223
1356526,1747390,1676094
1356064,1747015,1676194
1355999,1746899,1676942
1355964,1746794,1677112
1355492,1746987,1677301
1355153,1746800,1676506
1355205,1746771,1676788
1355031,1746552,1677092
1355053,1746371,1676908
1355267,1746386,1677071
1354696,1746118,1677165
1354675,1746677,1677681
1354657,1746418,1677445
1354774,1745964,1677634
1354418,1745985,1677660
1354523,1745807,1677980
1354538,1745324,1678221
1354458,1745033,1677534
1354139,1745272,1677412
1353956,1745533,1677600
1354396,1745673,1677616
1354396,1745515,1677731
1354021,1745732,1676915
1353893,1745710,1676845
1354003,1745568,1677578
1353991,1745554,1677422
1353765,1745078,1678148
1353688,1745378,1678258
1353804,1745238,1678324
1353785,1745249,1677653
1353769,1745436,1677282
1353681,1745226,1677534
1353545,1745591,1677404
1353485,1745065,1678223
1353644,1744937,1677915
1353329,1745018,1678091
1353630,1745263,1678467
1353941,1745244,1678563
1353876,1745020,1678850
1353830,1745179,1679076
1353998,1745097,1678634
1353745,1745243,1677962
1353587,1745559,1677439
1353587,1745349,1677133
1353638,1745420,1677078
1353874,1745344,1677063
1353837,1745405,1676872
1353884,1745003,1676557
1354180,1744640,1676283
1354136,1744791,1676429
1354106,1745188,1676378
1354098,1744716,1676673
1354380,1745126,1676439
1354700,1745122,1676147
1354939,1745121,1676522
1355057,1744835,1676504
1354926,1744748,1676341
1355392,1745146,1676376
1355680,1745283,1676112
1355369,1745997,1676214
1355198,1746281,1676794
1355176,1746581,1676461
1355086,1746804,1676648
1354903,1746737,1676812
1354999,1745965,1676481
1354751,1745313,1676846
1354483,1745352,1677335
1354338,1744817,1677077
1354246,1744566,1676444
1354339,1744175,1675697
1354332,1744171,1676539
1354095,1743875,1676746
1354042,1744722,1676701
1354042,1744293,1677117
1353913,1744169,1677285
1353832,1744693,1677286
1353497,1744119,1677290
1353777,1744268,1676464
1353766,1744091,1676761
1353387,1743450,1677095
1353374,1743893,1676403
1353591,1743677,1676227
1353296,1743261,1676471
1353158,1743333,1676669
1353128,1742914,1677184
1353158,1742953,1676559
1353217,1742756,1676515
1353333,1742348,1676677
1353299,1742770,1676831
1353382,1742483,1676879
1353239,1742396,1676501
1353294,1742112,1676325
1353339,1742664,1676404
1353136,1742727,1676927
1353263,1741996,1677160
1353366,1742471,1677163
1353530,1742556,1677167
1353455,1742855,1677472
1353516,1742343,1676985
1353373,1742210,1676811
1353768,1742176,1677294
1353860,1742480,1676869
1354063,1742565,1676791
1354046,1742729,1676194
1354166,1742176,1676248
1354027,1742384,1675750
1354153,1741733,1676173
1354289,1742156,1675524
1354275,1742446,1675800
1354496,1741444,1675820
1354747,1742218,1676250
1354433,1741780,1675484
1354593,1741718,1675423
1354503,1741434,1674909
1354351,1741613,1674765
1354289,1741643,1674549
1354355,1741187,1675087
1354293,1741051,1674732
1354253,1739923,1674916
1353693,1740063,1674741
1353675,1740506,1674840
1353718,1740662,1675014
1352988,1740009,1676045
1353576,1740448,1674552
1353674,1740226,1675854
1353620,1740329,1676121
1353451,1740345,1675981
1354243,1740585,1675991
1353773,1740658,1676719
1353529,1740892,1676785
1353439,1740804,1676274
1353565,1740353,1676135
1353406,1739967,1675669
1353888,1739800,1675878
1353780,1740044,1675914
1353590,1739603,1675257
1353825,1740208,1675931
1353804,1740074,1676385
1354084,1740132,1676450
1354783,1740315,1676169
1354141,1740112,1676101
1354096,1740355,1675896
1354250,1740626,1676129
1354123,1740555,1676387
1354513,1741103,1675588
1354809,1741384,1675535
1355179,1741495,1675941
1355000,1741364,1675764
1354959,1740796,1675853
1355047,1741303,1676198
1355791,1740996,1675780
1355345,1740903,1675956
1354853,1740603,1675378
1355054,1739963,1675555
1354832,1739918,1675291
1354534,1739527,1676067
1354263,1739365,1676659
1354148,1739280,1676209
1353943,1739372,1676206
1353495,1739014,1676164
1353841,1739447,1676585
1354050,1739253,1676252
1353812,1739471,1675391
1353775,1739583,1675021
1354009,1739685,1674975
1353996,1739549,1674518
1353824,1740052,1674305
1353929,1740071,1674361
1353647,1739763,1674550
1353609,1739864,1674184
1353637,1739917,1673475
1353828,1739854,1673890
1353930,1739946,1673582
1353942,1739850,1674185
1354005,1739371,1674404
1353988,1739532,1674335
1353928,1739519,1674134
1353921,1740075,1674121
1353639,1740111,1673663
1353639,1740105,1674067
1353679,1740029,1673891
1353825,1739971,1674219
1353976,1740249,1673583
1353936,1739997,1673561
1354180,1739659,1673871
1354196,1739765,1673944
1354211,1739968,1673999
1354310,1740114,1673914
1354424,1740466,1674261
1354624,1740225,1674439
1354742,1740653,1674886
1355199,1741550,1674283
1355312,1741248,1674438
1355292,1740494,1673810
1355667,1740955,1673852
1355703,1740791,1673876
1355696,1740761,1674351
1355489,1740916,1674163
1355617,1740473,1674116
1355561,1740261,1673633
1355187,1739642,1674436
1354779,1739311,1674670
1354774,1739615,1674272
1354481,1739790,1673596
1354086,1739209,1673458
1354315,1739843,1674047
1354363,1739488,1674428
1354029,1739138,1673622
1354180,1739430,1673798
1353784,1739521,1674354
1353931,1739653,1674391
1353912,1739612,1674569
1354128,1739063,1674250
1354077,1739237,1674214
1354356,1739740,1674345
1354213,1739035,1674405
1354317,1739731,1674707
1354509,1739919,1674662
1354606,1739216,1674367
1354614,1738649,1674238
1354640,1739354,1673392
1354368,1739593,1673009
1354444,1739852,1673157
1354452,1739681,1673055
1354195,1739430,1672655
1354381,1739455,1672208
1354496,1739137,1671778
1354454,1738972,1671770
1354474,1739237,1671570
1354553,1738826,1670668
1354665,1738844,1670334
1355038,1738537,1670311
1355343,1738894,1670683
1355287,1738690,1670512
1355435,1738882,1670333
1355257,1738813,1670152
1355303,1739169,1670490
1355409,1739808,1670209
1355409,1739854,1669634
1355345,1739531,1669979
1355014,1739579,1670411
1355342,1739694,1670936
1354835,1739761,1670734
1355536,1739480,1671302
1355572,1739942,1670850
1355949,1739637,1671572
1356536,1739997,1670944
1356392,1740268,1670840
1356383,1739794,1670442
1356433,1739697,1670660
1356541,1739483,1670412
1356349,1739176,1670333
1355269,1737749,1670470
1355745,1738054,1670853
1355781,1738031,1670467
1355626,1738086,1670867
1355611,1738259,1670509
1356252,1738226,1670021
1355851,1738242,1670211
1355409,1737977,1670545
1355155,1738092,1669972
1354913,1737613,1670968
1354843,1737748,1670464
1354920,1737489,1670234
1355208,1736740,1670729
1355040,1736823,1671233
1354607,1736599,1670967
1355129,1736530,1670527
1355209,1736544,1671624
1355381,1737019,1671563
1355673,1737185,1670427
1355200,1737279,1671149
1355004,1737506,1670852
1355197,1737246,1672088
1355435,1737943,1671432
1355394,1739428,1671388
1355561,1740253,1670638
1355524,1739689,1670477
1355675,1739576,1669543
1355755,1738926,1669978
1355534,1737685,1669855
1355777,1737906,1669392
1355831,1737689,1668861
1355839,1737254,1669492
1355942,1737447,1669430
1356162,1737978,1670100
1356683,1738769,1669792
1356664,1738469,1669569
1356721,1738298,1669224
1356904,1738141,1669518
1357095,1738065,1669410
1356811,1738098,1669224
1357070,1737983,1668273
1357083,1738253,1668639
1357008,1738228,1669099
1357438,1737187,1668705
1357327,1736712,1669371
1357366,1736567,1669449
1357484,1736298,1670088
1357290,1736078,1669764
1357174,1735727,1669915
1357237,1735915,1670030
1357048,1735834,1670703
1357240,1735619,1671440
1356885,1734556,1670845
1356740,1733682,1671052
1356958,1734179,1671213
1356712,1733889,1671329
1356665,1733909,1671276
1356911,1734341,1671381
1356566,1734529,1671713
1356659,1734677,1671522
1356785,1734558,1671864
1356596,1734815,1671547
1356507,1734755,1671002
1356740,1734704,1670930
1356600,1734393,1670985
1356606,1734833,1671077
1356769,1734932,1671285
1357195,1735170,1671299
1357093,1735165,1671926
1357145,1735259,1671598
1357192,1735099,1671628
1357177,1735330,1672420
1356959,1735327,1672608
1357029,1735700,1672607
1356708,1735782,1672115
1356708,1735688,1672705
1356970,1735275,1672676
1356979,1735375,1672521
1357142,1735214,1672555
1357042,1735018,1671916
1357196,1734682,1671706
1357182,1734846,1671476
1357174,1735055,1672446
1357381,1735034,1673111
1357408,1735172,1672600
1357333,1735087,1672502
1357310,1734799,1672132
1357368,1734807,1671635
1357650,1734947,1671610
1357614,1734803,1671670
1357949,1734886,1672214
1358062,1735019,1671995
1358206,1734554,1672602
1358067,1734735,1673210
1358045,1734900,1672771
1358080,1735113,1671180
1358060,1735200,1670301
1358060,1735157,1670697
1358066,1735225,1671677
1358296,1735217,1671491
1358111,1735264,1671591
1358446,1735378,1671590
1358453,1735134,1671158
1358716,1735542,1671414
1358805,1735793,1671414
1358781,1736184,1671012
1358891,1736575,1671682
1359016,1736309,1672034
1358875,1736045,1671160
1359054,1735977,1671173
1359124,1736233,1671984
1359285,1736032,1671398
1359649,1736063,1671205
1359384,1736146,1671540
1359480,1735709,1671679
1359515,1735661,1672237
1359455,1735615,1672015
1359875,1735712,1671876
1359259,1735619,1671389
1359259,1735508,1671715
1359393,1735140,1672235
1359317,1734893,1671659
1359579,1734762,1671804
1359583,1734297,1672411
1359165,1733935,1671847
1359120,1733955,1672217
1359405,1734337,1672586
1359346,1733947,1673055
1359225,1734249,1671633
1359100,1733693,1671496
1359221,1733722,1671564
1359549,1733983,1671925
1359372,1734491,1672343
1359806,1735011,1672609
1359885,1735178,1672153
1359457,1734728,1672250
1360080,1734505,1672352
1359433,1734609,1672062
1359821,1734599,1672888
1359903,1734802,1673274
1359667,1734502,1672974
1360007,1733807,1672424
1360244,1733985,1672581
1360159,1734071,1672953
1360669,1734337,1672973
1360775,1734617,1672938
1360227,1734307,1672351
1360997,1734474,1672666
1360999,1734583,1672508
1361150,1735428,1672475
1361400,1734714,1671818
1361098,1734503,1672051
1361412,1734787,1672068
1362078,1735051,1672250
1361969,1735480,1672438
1362182,1735583,1672129
1362486,1735082,1672364
1362390,1735182,1671963
1362600,1734825,1671380
1362240,1734825,1671209
1362364,1734964,1670953
1362166,1734677,1671252
1362192,1734531,1671308
1362233,1734518,1671380
1362236,1734496,1671345
1362153,1734157,1671189
1362266,1734064,1671495
1362185,1733752,1671499
1362157,1733947,1671505
1362081,1733906,1671251
1362134,1734087,1672027
1362475,1733818,1672640
1362484,1733968,1671990
1362395,1733796,1673016
1362469,1734217,1672846
1362554,1733991,1673296
1362690,1734411,1673937
1362500,1734525,1673429
1362707,1734770,1673054
1362514,1734764,1673468
1362459,1735034,1673749
1362630,1734937,1674345
1362842,1734757,1675275
1362748,1735021,1675872
1362857,1734437,1675983
1362953,1734462,1675595
1363364,1734305,1674935
1363258,1734612,1675060
1363565,1734136,1673944
1363728,1734599,1673809
1363635,1734410,1673350
1363888,1734452,1673498
1363613,1734674,1673463
1363554,1734496,1673879
1363909,1734165,1673319
1363589,1734056,1673410
1363699,1734134,1673640
1363616,1733891,1673550
1363789,1734249,1674063
1364005,1734254,1673619
1364408,1735081,1673995
1364529,1735367,1674267
1364475,1735254,1674043
1364791,1735307,1673859
1364960,1735320,1674817
1365029,1735382,1674216
1365185,1735601,1674296
1364850,1735713,1674494
1364809,1735724,1674952
1365260,1735183,1674611
1365161,1735086,1674637
1365226,1734542,1674656
1364922,1734351,1673938
1364908,1734394,1673824
1364872,1734393,1674115
1365334,1734067,1674277
1365228,1733892,1675116
1365191,1733794,1674313
1365293,1733744,1674149
1365192,1733760,1674177
1365373,1733655,1673961
1365027,1733897,1673705
1364835,1733784,1674311
1364921,1733573,1674866
1365117,1733805,1674957
1365289,1733700,1675159
1364943,1734170,1675689
1364899,1734092,1675403
1364874,1733869,1675155
1364997,1733636,1675547
1365156,1733626,1675550
1365202,1733929,1675171
1365193,1733694,1674637
1365195,1733657,1675408
1365290,1733970,1675747
1365420,1734032,1675363
1365566,1733978,1675227
1365676,1733921,1675477
1365542,1733729,1675941
1365517,1733761,1674984
1365567,1733971,1675095
1365820,1734438,1674995
1365706,1734650,1674561
1365590,1734633,1675187
1365590,1734631,1675431
1365560,1734271,1675581
1365625,1734347,1676215
1365850,1734342,1676105
1365748,1734326,1675683
1365736,1734202,1675773
1365971,1734924,1676119
1366044,1735377,1676237
1366214,1736150,1676673
1366083,1735856,1676452
1366454,1736013,1676943
1365552,1736160,1676866
1366254,1736237,1677448
1366184,1736365,1677434
1366399,1736515,1676840
1366721,1736405,1676393
1366837,1736281,1677100
1367420,1736423,1676616
1367076,1736700,1677181
1367167,1737027,1677287
1367087,1737329,1677684
1366754,1737505,1677678
1366754,1737590,1678059
1366689,1737656,1677760
1366914,1737229,1677555
1366910,1737314,1677098
1366934,1737135,1676759
1366985,1736733,1675930
1367299,1736658,1675803
1367311,1737222,1676582
1367357,1736601,1676453
1367330,1736930,1676971
1366819,1736801,1676575
1367253,1736420,1676597
1367317,1736421,1676912
1367570,1736424,1677589
1367725,1736340,1677337
1367974,1736306,1677014
1368667,1736221,1677113
1368158,1736073,1677473
1367835,1736312,1677317
1367986,1735824,1676359
1367979,1735859,1677126
1367497,1735825,1676407
1367497,1735557,1676312
1367601,1735386,1677325
1367593,1735280,1677349
1367703,1734891,1677065
1367593,1735047,1677156
1367710,1734842,1677056
1367756,1735967,1677521
1367575,1735730,1677237
1367736,1734654,1677261
1367163,1735556,1677582
1367799,1735571,1677398
1367800,1735268,1677585
1367900,1735520,1678228
1367670,1735683,1679006
1368117,1735690,1679403
1369273,1735622,1678976
1368520,1735887,1679530
1368310,1735790,1679612
1368255,1735897,1679908
1368282,1736015,1678849
1368526,1736343,1678524
1368515,1736764,1678878
1368135,1736676,1678719
1368135,1736555,1678448
1368341,1736276,1677945
1368534,1736626,1677462
1368673,1737096,1677166
1368847,1736428,1676836
1368692,1736463,1676843
1368951,1735967,1677130
1368588,1735719,1677671
1368829,1735620,1677542
1369012,1735690,1677283
1369073,1736295,1677344
1369213,1735745,1677555
1369368,1735393,1677390
1369394,1736083,1677483
1369346,1735688,1677231
1369256,1736019,1676780
1369233,1736066,1677074
1369459,1736562,1677031
1369569,1736926,1677525
1369602,1736868,1678202
1369766,1736622,1677665
1369864,1736059,1677243
1369749,1735581,1677013
1370129,1735397,1677194
1370249,1735660,1677303
1370272,1736730,1676533
1370431,1737784,1676328
1370609,1737772,1676382
1370278,1738062,1676829
1370237,1738585,1677120
1370153,1738951,1677849
1370061,1739488,1677639
1370234,1739858,1677772
1370204,1740051,1677820
1370341,1740147,1677313
1370269,1740115,1676920
1370158,1739872,1677248
1370337,1738869,1677342
1370327,1737737,1676927
1370231,1736578,1676806
1370616,1736462,1676215
1370448,1736413,1676041
1370339,1736789,1676088
1370233,1737270,1676450
1370544,1737318,1676529
1370210,1737611,1677183
1370541,1737594,1677807
1370742,1737662,1677456
1371038,1737431,1677923
1371086,1737401,1677944
1371014,1737045,1677972
1371148,1737399,1677676
1371136,1737120,1678053
1371291,1737628,1677727
1371477,1737710,1678587
1371458,1737513,1678357
1371494,1737843,1678980
1371715,1738303,1679155
1372261,1738895,1679009
1372127,1738449,1679163
1372005,1737559,1678524
1372359,1737180,1678358
1372516,1736841,1678133
1372101,1736682,1678157
1372085,1736122,1678018
1372003,1735956,1678281
1372238,1735520,1679195
1372060,1735064,1678587
1371849,1735542,1679696
1371861,1735674,1679993
1372245,1736310,1680033
1372202,1736219,1680401
1372013,1735845,1680045
1372267,1736135,1679684
1372313,1736138,1680025
1372242,1736027,1680659
1372418,1736388,1680613
1372144,1736374,1680474
1372152,1736247,1680648
1372336,1735947,1681143
1372039,1735748,1681260
1372067,1736709,1681137
1372340,1735863,1681212
1372142,1735504,1681198
1371628,1735520,1681244
1372077,1735405,1681531
1372424,1735458,1681634
1372432,1735328,1681554
1372536,1735308,1681629
1372643,1734774,1682170
1373092,1735264,1682043
1372731,1735085,1681844
1372554,1735553,1682154
1372252,1735346,1682727
1372322,1735130,1681756
1372359,1734858,1682530
1372443,1735337,1683021
1372707,1735147,1682868
1372709,1735615,1683462
1372816,1735751,1683339
1372544,1736104,1683539
1372738,1736835,1684449
1372822,1736098,1683905
1372844,1735902,1684292
1372521,1735509,1683346
1372630,1735338,1683996
1372850,1735890,1683321
1373066,1735758,1683194
1373233,1735865,1682892
1373379,1736029,1682229
1374024,1735716,1683121
1373400,1735848,1683080
1373479,1735929,1683048
1373422,1736207,1683747
1373503,1736481,1683077
1373338,1736274,1682947
1373338,1736182,1683245
1373445,1735923,1683249
1373598,1736122,1683677
1373528,1735946,1683498
1373628,1735643,1684482
1373516,1735650,1684392
1373793,1735483,1684392
1373661,1735427,1684473
1373490,1734472,1684912
1373495,1733737,1684804
1373736,1733489,1684792
1373608,1733608,1684535
1373799,1733513,1684192
1374007,1733772,1683895
1374046,1733513,1684840
1373952,1733908,1684206
1373784,1733802,1685350
1373545,1734223,1685101
1373861,1733611,1685468
1373982,1734305,1685417
1374115,1734410,1685048
1373916,1733997,1685236
1373797,1733836,1685204
1374069,1733662,1686113
1374402,1733248,1686396
1374454,1732820,1685999
1374666,1733227,1687007
1374692,1733228,1686891
1374602,1733269,1686293
1374457,1733397,1687140
1374489,1733590,1687327
1374786,1733284,1686202
1374711,1733376,1685251
1374993,1732632,1684535
1374995,1733244,1683973
1374728,1733533,1683623
1374950,1734054,1683017
1375200,1734216,1682256
1375059,1734598,1682524
1375198,1733872,1682940
1375456,1734399,1683181
1375365,1734313,1683626
1375309,1734242,1683682
1375256,1734394,1683973
1375062,1734309,1683305
1375160,1734260,1683190
1375206,1733871,1684296
1375290,1733646,1684081
1375130,1733248,1685557
1375006,1732696,1685835
1374967,1732752,1685320
1375051,1732648,1685880
1375141,1732865,1686417
1375439,1733051,1686106
1375675,1733119,1684881
1375408,1733039,1682920
1375384,1733437,1681908
1375217,1733622,1681374
1375526,1733779,1680748
1375199,1734172,1680489
1375112,1734224,1680816
1375656,1734174,1680060
1375750,1734403,1680562
1375753,1734147,1680966
1375667,1734465,1681562
1375371,1734554,1682197
1375658,1734596,1682417
1375340,1734404,1682778
1375767,1733973,1683373
1375680,1733598,1684713
1375829,1733427,1684774
1375912,1733442,1684455
1376136,1733417,1684885
1375947,1733469,1685038
1375936,1734064,1684654
1376432,1734023,1685758
1376454,1734567,1685132
1376057,1734670,1684949
1376237,1734574,1685712
1376222,1734531,1685677
1376508,1734360,1686340
1376315,1734359,1686433
1376411,1734244,1686221
1376276,1733768,1685935
1376328,1733888,1686146
1375604,1733909,1686824
1376584,1733800,1687095
1376693,1734007,1687188
1377014,1734227,1687098
1377029,1733789,1686887
1376942,1733881,1687305
1377849,1734279,1687619
1377149,1734196,1687962
1376831,1734257,1687687
1376831,1733794,1687530
1376627,1733620,1687271
1376700,1733280,1687056
1376380,1733075,1687299
1376709,1732600,1686953
1376490,1732025,1687431
1376563,1732060,1687298
1376756,1732285,1687136
1376512,1732462,1686499
1376504,1733099,1686480
1376534,1732713,1685687
1376500,1732548,1685731
1375896,1732791,1685725
1376649,1733065,1686313
1376780,1733726,1687372
1377178,1733681,1686961
1377030,1733648,1687102
1377109,1734010,1686872
1377285,1733605,1686535
1377192,1733520,1686994
1377228,1733550,1686787
1377267,1733849,1687321
1377014,1733833,1687544
1377189,1733209,1687523
1377236,1733397,1686271
1377143,1733053,1686925
1377338,1732962,1687152
1376311,1732742,1686650
1376937,1732557,1685943
1377134,1732812,1685513
1377357,1732990,1685986
1377623,1732860,1686472
1377668,1733066,1686181
1378447,1732891,1686677
1377983,1733007,1687133
1377697,1733097,1687647
1377696,1733541,1687919
1377843,1733752,1687870
1377662,1733306,1687973
1377494,1733722,1688500
1377747,1733454,1687746
1377946,1733367,1689114
1377868,1733434,1689956
1377690,1733737,1691469
1377894,1733684,1693387
1378092,1733359,1694073
1377832,1733716,1694671
1378104,1733689,1695069
1377937,1733152,1694560
1377725,1733067,1695219
1377734,1732635,1695219
1377820,1732347,1695605
1377990,1732259,1695179
1378011,1732029,1695212
1377864,1731442,1695767
1377752,1731465,1696099
1378019,1731337,1696532
1377760,1731677,1697351
1377560,1731862,1696368
1377560,1731769,1696617
1377351,1731754,1697593
1377398,1731735,1697703
1377573,1732185,1698137
1377788,1732044,1697817
1377748,1731921,1697536
1377734,1732327,1697361
1377578,1732375,1697083
1377716,1732372,1696697
1377728,1732425,1696848
1377478,1732318,1696473
1377690,1732007,1697336
1377379,1731685,1696976
1377674,1731858,1696655
1377764,1731700,1697024
1378002,1731922,1696808
1377908,1731818,1696699
1378053,1731745,1696449
1377828,1731709,1696379
1377944,1731990,1696517
1378148,1731850,1696290
1378084,1732352,1695961
1377626,1732105,1695750
1377626,1731895,1695440
1377676,1731632,1696269
1377718,1731787,1696447
1377876,1731578,1696454
1377841,1731492,1696741
1377882,1731256,1695657
1377957,1731896,1695974
1378016,1732486,1696106
1378147,1732518,1695762
1378425,1732657,1695630
1378375,1732673,1695859
1378624,1732526,1695714
1378715,1732395,1695760
1378224,1731544,1695216
1378376,1731249,1696456
1378500,1731289,1696288
1378119,1731297,1696908
1378247,1730363,1696211
1378028,1730164,1696265
1377806,1730384,1696477
1377823,1730472,1696316
1377724,1730855,1695621
1377816,1730530,1696483
1377658,1730206,1696925
1377943,1731000,1697741
1378047,1730196,1697893
1378157,1730155,1697874
1377747,1730171,1697045
1377464,1730259,1696823
1377888,1730192,1697026
1377553,1730189,1697064
1377672,1730311,1696331
1377827,1730788,1696456
1377953,1731311,1696790
1378091,1732050,1696817
1378542,1732769,1696417
1378554,1733779,1696566
1378387,1733915,1696503
1378492,1734038,1696013
1378995,1734305,1696459
1378256,1734249,1696522
1378663,1733387,1696268
1378500,1732804,1696413
1378612,1731613,1696687
1378488,1730553,1696486
1378379,1730240,1697096
1377971,1729705,1696782
1377444,1729313,1697362
1377506,1729450,1697362
1377997,1729243,1696749
1377697,1729299,1696425
1377457,1728717,1696606
1377093,1728661,1696451
1377015,1728741,1696273
1377122,1729272,1695263
1377250,1729379,1695426
1376888,1729155,1694942
1376799,1730230,1694592
1376503,1729811,1694238
1376946,1730056,1694490
1377122,1730378,1694379
1377014,1730474,1694916
1376925,1730845,1694382
1376731,1730839,1694818
1376737,1730523,1695392
1376872,1729689,1695201
1376451,1730611,1694538
1376816,1730685,1694398
1376771,1730778,1694215
1376822,1730673,1694177
1376859,1730783,1692670
1377387,1730808,1692541
1377064,1730987,1691960
1377083,1731270,1692518
1377026,1731538,1692836
1377114,1731640,1692816
1377200,1731521,1691944
1377147,1731846,1691400
1377256,1732112,1691360
1377246,1732071,1690443
1377410,1732558,1690375
1377449,1732573,1689204
1377614,1732958,1689498
1377705,1732853,1689373
1377712,1732961,1689496
1377736,1732787,1689821
1377938,1732821,1689938
1377814,1732653,1689679
1378093,1733035,1688699
1377923,1732353,1689533
1377823,1732209,1689642
1377652,1731788,1689887
1377177,1731581,1690002
1377250,1731476,1689921
1377106,1730978,1690281
1376924,1731171,1690737
1376626,1730684,1691091
1376209,1730333,1690922
1376220,1730856,1691033
1375779,1730692,1691343
1375373,1730071,1691621
1375468,1730471,1691794
1375210,1730258,1691688
1375196,1730037,1691731
1375072,1730099,1691766
1374696,1730318,1691625
1374649,1730289,1692346
1374754,1730239,1692597
1374658,1730183,1693581
1374824,1730122,1693371
1374788,1729845,1693753
1374661,1729755,1693468
1374650,1729749,1693944
1374675,1729695,1695112
1374757,1729754,1695706
1374744,1729687,1695541
1374552,1729719,1695259
1374674,1729636,1695307
1374440,1729924,1695033
1374599,1730036,1694563
1374444,1730399,1694903
1374360,1730462,1693945
1374360,1730228,1694008
1374121,1730283,1694380
1374205,1730198,1694228
1374356,1730364,1693859
1374556,1730236,1694402
1374498,1729891,1694183
1374297,1730215,1693306
1374435,1730264,1693787
1374600,1730350,1693781
1374384,1730505,1693875
1374603,1730422,1693977
1374493,1730374,1693928
1374478,1730203,1693372
1374478,1730380,1694234
1374623,1730548,1694376
1374791,1730735,1693641
1374918,1730661,1693709
1374807,1730478,1693876
1375050,1730641,1693634
1374927,1730910,1694173
1374999,1731129,1693565
1374896,1730765,1693862
1375301,1731063,1693762
1375187,1730951,1693822
1375287,1731350,1693688
1375075,1731430,1693655
1375004,1731351,1693613
1375108,1731151,1694007
1375213,1731343,1694048
1375261,1731674,1695102
1375484,1731775,1695572
1375540,1732007,1695614
1376026,1732076,1695761
1375832,1732298,1695077
1375792,1731526,1694569
1375977,1731994,1694753
1376160,1731355,1693986
1375876,1731071,1693627
1375694,1730454,1692736
1375342,1730164,1692516
1375538,1729703,1692243
1374842,1729667,1693195
1374258,1729850,1693454
1374079,1729977,1692764
1373844,1730113,1693232
1373556,1729787,1693135
1373428,1730194,1693416
1373580,1729881,1693104
1373471,1730266,1693191
1373354,1730408,1693106
1373396,1730390,1693636
1373371,1730282,1693897
1374037,1729335,1694153
1373586,1729836,1694108
1373347,1730279,1694018
1373284,1729825,1693603
1373236,1729826,1693815
1373319,1729801,1694448
1373304,1730198,1695142
1372656,1729852,1695403
1373296,1730216,1695339
1373494,1730368,1695520
1373430,1730445,1694694
1373270,1730491,1694786
1373918,1730427,1694917
1373500,1730089,1694753
1373380,1730579,1693967
1373466,1730482,1694353
1373144,1730001,1693839
1373529,1730106,1693558
1373600,1730943,1692924
1373870,1731216,1693114
1373121,1730539,1692840
1373828,1730527,1692478
1374183,1730690,1692489
1374195,1730962,1692467
1374092,1730986,1693241
1374846,1731316,1692536
1374212,1731539,1692588
1374286,1731482,1692534
1374199,1731324,1693530
1374324,1731062,1693382
1374285,1731151,1694379
1374653,1731426,1694197
1374474,1730496,1693611
1374171,1729649,1693542
1374239,1730166,1694119
1374077,1730020,1694181
1373860,1729894,1694081
1373737,1729763,1694012
1373996,1730031,1693628
1373605,1730037,1693835
1373594,1730498,1694333
1373579,1730205,1694029
1373474,1730011,1694368
1373534,1730391,1694040
1373294,1730163,1693830
1373446,1730389,1694337
1373511,1730598,1694126
1373316,1730132,1693370
1373347,1730720,1693122
1373413,1730420,1693468
1373487,1730402,1692759
1373250,1730625,1692658
1372964,1730547,1694006
1373069,1730567,1694244
1372994,1730450,1694355
1373263,1730237,1694879
1373231,1730303,1694846
1373318,1730248,1694959
1372952,1729741,1695274
1373045,1730087,1694400
1373148,1729893,1694357
1373363,1730268,1694092
1373447,1730230,1694705
1373655,1730402,1694582
1373361,1730124,1695263
1373354,1730435,1695855
1373605,1730507,1694867
1373252,1730927,1696137
1373227,1730837,1696332
1373227,1731056,1696842
1373333,1731037,1697029
1373322,1730995,1696392
1373474,1731179,1696431
1373434,1731000,1696787
1373554,1730712,1696656
1373545,1731058,1696900
1373735,1731220,1696783
1373648,1731282,1696976
1373782,1731609,1697011
1373989,1731593,1697749
1373875,1731946,1698073
1374299,1732368,1697655
1374130,1732568,1696859
1374228,1731953,1696721
1374615,1732482,1696929
1374488,1732313,1697017
1374402,1732127,1697354
1374664,1732505,1696575
1374449,1732717,1696810
1374320,1732332,1697493
1374277,1732090,1697231
1374447,1731337,1698038
1374246,1730951,1698231
1374108,1730831,1697861
1374092,1730779,1697719
1374098,1730707,1697200
1374105,1730664,1697746
1374292,1730695,1697712
1374341,1730822,1697191
1374077,1731280,1697058
1374272,1731252,1696670
1373962,1731174,1696681
1374328,1731476,1696680
1374398,1731487,1696697
1374224,1731799,1695985
1373945,1731715,1696246
1374271,1731762,1696356
1374129,1731875,1696203
1374131,1731960,1697025
1374021,1731833,1696777
1373878,1731975,1696800
1374257,1731872,1697246
1375125,1731746,1697093
1374555,1731839,1697169
1374299,1732038,1696253
1374396,1731495,1697038
1374205,1731837,1696897
1374268,1731674,1697445
1374308,1732022,1697650
1374323,1732073,1697944
1374323,1732040,1698265
1374152,1731958,1697139
1374394,1732052,1696995
1374249,1732387,1697225
1374519,1732071,1697364
1374544,1732253,1696791
1374473,1731902,1696731
1374357,1732142,1696670
1373920,1732319,1696935
1374595,1732204,1697190
1374724,1732522,1697476
1374741,1732626,1696996
1374782,1732004,1696806
1374602,1731751,1697350
1375372,1732114,1697313
1375082,1732367,1697276
1375164,1732932,1697571
1375101,1732536,1697644
1375015,1732396,1697135
1374749,1732364,1697505
1375294,1732793,1697682
1375359,1733349,1698119
1375251,1733392,1698328
1374808,1733757,1697633
1374808,1733661,1698165
1375068,1733699,1697920
1375213,1734136,1698061
1375162,1735027,1698222
1375320,1734210,1698061
1375297,1733961,1697724
1375260,1734461,1697891
1375407,1734635,1698103
1375592,1734363,1698005
1375448,1734342,1697840
1375305,1734228,1698489
1375733,1733881,1698353
1375432,1733533,1697994
1375605,1733521,1698535
1375665,1733511,1697903
1375361,1734070,1698199
1375611,1734195,1698846
1374965,1734244,1698933
1375095,1734421,1698631
1375828,1734227,1699127
1375440,1733906,1698767
1375677,1734059,1698555
1376500,1733760,1699038
1375936,1733657,1698568
1375571,1733409,1698322
1375717,1733690,1698351
1375745,1733733,1698595
1376025,1733920,1698225
1376335,1734048,1698477
1376181,1733953,1698716
1376092,1734257,1698703
1376303,1733764,1698810
1376450,1734061,1697974
1376478,1733470,1697577
1376114,1733680,1697791
1376393,1733495,1697403
1376333,1733879,1697770
1375896,1734076,1697633
1376116,1733948,1697511
1376158,1733925,1697937
1376150,1734169,1697992
1376203,1734310,1698086
1376308,1733877,1698151
1376234,1733694,1697698
1376506,1734027,1697855
1376399,1734083,1697875
1376576,1734125,1698518
1376811,1734442,1698387
1376969,1734133,1698258
1376916,1734174,1698693
1377275,1734817,1698257
1376951,1734713,1698252
1376998,1734891,1698291
1376988,1734790,1698441
1376982,1735159,1698565
1377312,1735502,1697889
1377261,1735203,1699024
1377132,1735191,1698871
1377486,1735458,1699318
1377585,1735707,1699367
1377568,1735407,1698516
1377583,1734766,1698508
1377339,1733774,1698780
1377429,1734217,1699067
1377584,1734162,1699914
1377489,1734314,1699734
1377414,1734639,1699488
1377837,1735155,1699074
1377584,1734942,1699122
1377824,1735583,1699442
1377826,1735663,1699795
1378246,1735652,1699734
1378249,1735507,1699410
1378256,1735099,1700088
1378440,1735535,1699930
1378545,1735591,1699858
1378792,1735554,1700688
1378587,1735907,1700343
1378638,1735883,1700246
1378443,1735580,1700270
1378699,1735972,1700502
1378894,1736376,1700256
1378899,1736938,1700816
1379165,1736796,1700795
1379432,1736854,1700500
1379493,1737460,1700180
1379446,1737228,1701240
1379442,1737060,1701571
1379512,1737283,1700484
1379404,1737670,1700980
1379323,1737631,1701171
1379627,1737610,1701269
1379516,1737377,1700826
1379694,1737157,1700389
1379657,1736883,1700394
1379655,1736736,1700408
1379982,1736674,1700471
1380044,1737123,1701211
1380020,1736826,1701219
1380155,1736948,1701472
1380296,1737037,1701472
1380168,1737311,1701776
1379997,1737744,1701390
1380156,1737646,1701529
1379417,1737903,1700998
1380027,1737844,1701179
1380119,1737774,1701350
1380335,1738127,1701411
1380238,1737749,1700730
1380390,1738110,1701095
1380478,1738653,1700781
1380386,1738448,1700615
1380855,1737853,1700491
1381004,1737959,1700808
1380932,1738601,1700938
1381118,1739032,1700826
1381302,1739387,1700489
1381104,1739723,1700605
1380207,1740058,1700410
1380906,1740161,1700931
1381140,1740332,1701322
1381158,1740571,1700504
1381267,1740585,1700752
1381197,1740069,1700681
1381978,1740282,1700377
1381488,1740196,1700541
1381325,1739991,1700273
1381466,1739731,1700619
1381601,1739381,1700193
1381610,1739729,1700094
1381378,1740371,1700694
1381846,1741153,1701087
1382111,1741002,1700950
1382054,1741000,1701053
1381259,1741301,1700952
1381492,1741049,1701031
1381722,1740896,1701450
1381963,1740858,1701641
1381837,1740628,1701151
1381776,1740141,1700841
1382297,1739280,1701377
1381613,1738789,1701219
1381697,1738811,1701753
1381955,1738605,1700999
1381997,1738654,1700990
1381927,1738307,1701587
1382301,1737964,1701006
1382159,1738147,1700860
1382016,1738711,1700761
1382092,1738653,1701426
1381978,1739477,1701604
1381545,1739934,1701333
1381545,1740287,1701702
1381864,1740443,1702112
1382056,1740620,1702394
1381862,1739591,1702197
1381909,1739822,1701729
1381973,1740120,1701955
1382040,1740386,1702206
1382107,1740823,1701895
1382031,1741038,1701861
1382184,1741324,1701720
1382196,1740992,1702506
1382163,1741007,1702535
1382249,1741071,1702477
1381985,1741032,1701689
1382400,1741150,1701434
1382594,1740967,1701694
1382656,1741033,1702032
1382517,1740547,1702420
1382758,1740855,1702559
1382360,1740957,1702046
1382528,1740872,1702106
1382532,1741049,1701805
1382532,1740896,1701934
1382440,1740862,1702843
1382538,1740969,1703118
1382682,1741201,1702641
1382688,1741033,1702042
1382839,1740951,1702452
1382801,1740524,1702204
1382928,1741232,1702075
1382985,1741607,1702527
1383078,1741485,1701940
1383207,1741665,1701351
1383010,1742447,1700843
1383698,1742036,1701413
1383518,1741519,1700693
1383639,1741661,1701011
1383623,1740924,1700493
1383650,1740613,1701385
1383349,1740427,1701077
1383226,1740730,1701485
1383020,1740587,1701377
1383580,1740297,1701042
1383257,1740602,1700476
1383150,1740871,1700371
1383384,1740797,1701091
1383326,1740975,1701397
1383482,1741657,1700922
1383338,1742156,1700804
1383718,1741979,1700745
1383815,1741901,1700950
1383861,1742339,1701580
1383987,1741979,1701557
1384073,1742104,1701416
1383837,1742437,1701159
1383623,1742206,1701422
1383385,1741996,1700864
1383883,1741455,1701393
1383737,1741427,1701452
1383691,1741389,1700952
1383564,1741084,1701218
1383774,1741287,1701314
1384043,1741185,1701306
1384154,1741537,1701531
1384208,1741442,1701787
1384196,1741581,1701279
1384273,1741586,1701498
1384384,1742009,1701775
1384505,1742065,1702254
1384200,1742350,1701631
1383962,1742479,1701206
1383962,1742740,1701718
1384022,1742479,1701689
1384313,1742819,1701935
1384332,1742356,1702021
1384590,1742399,1702310
1384563,1742661,1701634
1384494,1742774,1701785
1384612,1742274,1701674
1384500,1742278,1701733
1384613,1741917,1701571
1384288,1742969,1701477
1384407,1745012,1701594
1384328,1746223,1701055
1384171,1745072,1701736
1384378,1745028,1701767
1384560,1744514,1701270
1384441,1743963,1700659
1384404,1743931,1701831
1384377,1743208,1702670
1383568,1742826,1702463
1383889,1743099,1702760
1383954,1743388,1702436
1384091,1743422,1702676
1384688,1742871,1703232
1384317,1743566,1702527
1384301,1743516,1702816
1384467,1743808,1701920
1384463,1744104,1702561
1384570,1743832,1702991
1384305,1743972,1702185
1384480,1743633,1702881
1384266,1743942,1702707
1384257,1743690,1702279
1383477,1743467,1702282
1384200,1743114,1702207
1384263,1742618,1702302
1384343,1743007,1702090
1384347,1742174,1701729
1384362,1741856,1701813
1384742,1742007,1703158
1384404,1741934,1703248
1384585,1741928,1702926
1384723,1741688,1703524
1384729,1741662,1703046
1384554,1741462,1702924
1385028,1741667,1702612
1385009,1741776,1702815
1384826,1742397,1702957
1384618,1742317,1702362
1384618,1742252,1702761
1384471,1742417,1703444
1384856,1742295,1703805
1384781,1742274,1702601
1384556,1741811,1702668
1384631,1741440,1702605
1384384,1741086,1702492
1384399,1741086,1702796
1384269,1741291,1702376
1384246,1741051,1702658
1384300,1740784,1702903
1384352,1740713,1702402
1384119,1740899,1703285
1383842,1741121,1703271
1384296,1742061,1704041
1384082,1742003,1703863
1384075,1742092,1702556
1383994,1742597,1702419
1384007,1742605,1702150
1383924,1742710,1702556
1383631,1742938,1702453
1383605,1743057,1702288
1383850,1742851,1702981
1383743,1742787,1703602
1383757,1743191,1704069
1383603,1743378,1704375
1383815,1743509,1703561
1383834,1743751,1703256
1383812,1743719,1703236
1383889,1743882,1703515
1383939,1743965,1703379
1383885,1743828,1703568
1383982,1744329,1704134
1383872,1744321,1703907
1383912,1744549,1703972
1383910,1744562,1704109
1384163,1744438,1704743
1384027,1744660,1705075
1384115,1744597,1704207
1383942,1744252,1704097
1383906,1744439,1704351
1384017,1744399,1704541
1384513,1744444,1704210
1384431,1744489,1704160
1384514,1744604,1703381
1384453,1744546,1703867
1384498,1744672,1703074
1384605,1744404,1703438
1384509,1745043,1702003
1384181,1745225,1702458
1384181,1745277,1702404
1384311,1745201,1702589
1384514,1745249,1702578
1384705,1745437,1702259
1384604,1744973,1701945
1384672,1744706,1701897
1384491,1744918,1701974
1384652,1744748,1701781
1384850,1745469,1702245
1384797,1744934,1702045
1384629,1744595,1702322
1384593,1744146,1702396
1384619,1744112,1702417
1384435,1743951,1702439
1384517,1743605,1702308
1384636,1743543,1702371
1384579,1743307,1701894
1384510,1742665,1701830
1384163,1742585,1702262
1384187,1742630,1702027
1383904,1742938,1702522
1383520,1742560,1702386
1383812,1743119,1702993
1384149,1742802,1702765
1383825,1743170,1702203
1383979,1742770,1701792
1383582,1742608,1701294
1383406,1742283,1701656
1383486,1742450,1701206
1383477,1742843,1701559
1383498,1742680,1702549
1383413,1741971,1702589
1383510,1742153,1702177
1383463,1741723,1702616
1383084,1741671,1702210
1383346,1741233,1701939
1383514,1741872,1702283
1383183,1741958,1702401
1383121,1741768,1701856
1383098,1741659,1701619
1383372,1741718,1702510
1383435,1741164,1702589
1383263,1740836,1702499
1383603,1741016,1702892
1383619,1740897,1703334
1383683,1740590,1702670
1383660,1741109,1701760
1383760,1740914,1702666
1383791,1740867,1702194
1383913,1741456,1702747
1383752,1741557,1702363
1383707,1741319,1702824
1383962,1740915,1702889
1383919,1740832,1702736
1383737,1740776,1703204
1383825,1740930,1703445
1383661,1740392,1703285
1383707,1740491,1703561
1383942,1740381,1703419
1383834,1739102,1703763
1383279,1738098,1703965
1383414,1738636,1703599
1383347,1738442,1703341
1383161,1738634,1703520
1383135,1738831,1703588
1382941,1738874,1703374
1382542,1739058,1703462
1383134,1739034,1703129
1382913,1739495,1702615
1382920,1738944,1702423
1382875,1738558,1702393
1382780,1739020,1701831
1382908,1738903,1701414
1383002,1739109,1701038
1383109,1738758,1700556
1383283,1738995,1701020
1383114,1738598,1701457
1383393,1738783,1701562
1383333,1738808,1700878
1382831,1739174,1700982
1382851,1739000,1700688
1382851,1738891,1700655
1382771,1738935,1700057
1383059,1738928,1700247
1382886,1738211,1700120
1382894,1737974,1700182
1382952,1738299,1700015
1382546,1738346,1699705
1382825,1738063,1699632
1382926,1738196,1700374
1382712,1737888,1700001
1382825,1738112,1700006
1382692,1738047,1699880
1383079,1738059,1699022
1382929,1738685,1699400
1382825,1738454,1699193
1383217,1738814,1699922
1383171,1738727,1699659
1383279,1738895,1699848
1383074,1738931,1699459
1383048,1738742,1699405
1383105,1738971,1699588
1383286,1738136,1699364
1383448,1737978,1699568
1383333,1737886,1699260
1383181,1737451,1699012
1383309,1737698,1699171
1383121,1737984,1699590
1383388,1738560,1698950
1383519,1739089,1699766
1383291,1739530,1700061
1383448,1738981,1699073
1383385,1738841,1700070
1383168,1738728,1699823
1383264,1738852,1700324
1382911,1738587,1700163
1382911,1738854,1700166
1382867,1738778,1699934
1382916,1739159,1700688
1383058,1739530,1700807
1382768,1739724,1700523
1382797,1740036,1700442
1382942,1740802,1700211
1383089,1741411,1700062
1383063,1741623,1699983
1383049,1742075,1700375
1383171,1742157,1700246
1383047,1742355,1700035
1382916,1742494,1699805
1383096,1742859,1700113
1383071,1742911,1699938
1383369,1742981,1700423
1383497,1743030,1700453
1383381,1742166,1700448
1382996,1741196,1700029
1383295,1741236,1699723
1383329,1740805,1700099
1383331,1740608,1699811
1383083,1740704,1699602
1382811,1740132,1699669
1383073,1739669,1699512
1383179,1739684,1699288
1383337,1739620,1699648
1383150,1739368,1698788
1383048,1739073,1699086
1382954,1739055,1698412
1383020,1739222,1698774
1383297,1739320,1698677
1383532,1739156,1698684
1383601,1739287,1697976
1383679,1739130,1698386
1383546,1739225,1698343
1383526,1739484,1698520
1383685,1739719,1697651
1383344,1739990,1698164
1383422,1739253,1698576
1383671,1739408,1698266
1383758,1739139,1697562
1383641,1738907,1698508
1383673,1738850,1698362
1383468,1738561,1698868
1383573,1738340,1698343
1383874,1737503,1698467
1383591,1737206,1698490
1383401,1736903,1698900
1383333,1736367,1698840
1383255,1736361,1698525
1383080,1736011,1698152
1383427,1735935,1698208
1383472,1735676,1698544
1382991,1735866,1698722
1382923,1735758,1698576
1382693,1735684,1699075
1382762,1735860,1698563
1382907,1736010,1698905
1383249,1735987,1698886
1382804,1736277,1698892
1382757,1736352,1698927
1382781,1736288,1698573
1382702,1736319,1698493
1382885,1735943,1698180
1382789,1735741,1698880
1383080,1735429,1698486
1382680,1735448,1698820
1382991,1735580,1698971
1382895,1735771,1698813
1382977,1735466,1699433
1382680,1736052,1699684
1382818,1736388,1699996
1382810,1736503,1699583
1382922,1736782,1699042
1382791,1736520,1699469
1382384,1736444,1699220
1382814,1736447,1699617
1383124,1736139,1699495
1383009,1736366,1699883
1383002,1736233,1699125
1383013,1736015,1699419
1383968,1736049,1699356
1383752,1736320,1698640
1383470,1735933,1698718
1383379,1735609,1699318
1383457,1735490,1699213
1383183,1735437,1698514
1383539,1735261,1698842
1383312,1735307,1699314
1383312,1735178,1699393
1383219,1734919,1699824
1383414,1735275,1699559
1383493,1734762,1699821
1383174,1734460,1699464
1383149,1734632,1699407
1383127,1734300,1698863
1382983,1734154,1698009
1382452,1734518,1698238
1382770,1734276,1697514
1382820,1734672,1697454
1382792,1734995,1697585
1382744,1735700,1697105
1382610,1735727,1696990
1382662,1735148,1696731
1382910,1735833,1697002
1382740,1735649,1696619
1382588,1736207,1696942
1382586,1735476,1696696
1381697,1735915,1696280
1382602,1735540,1696180
1382616,1735580,1695720
1382740,1736038,1696129
1382543,1735798,1696517
1383174,1735899,1696292
1382548,1736190,1696702
1382907,1737057,1697207
1382919,1738333,1696242
1382843,1738681,1696409
1383127,1739647,1696504
1383131,1738754,1696656
1382937,1737651,1696664
1382702,1737323,1696245
1383114,1736424,1695938
1382994,1736056,1696752
1383121,1735082,1696980
1383002,1734395,1696187
1383366,1734535,1695624
1383498,1735274,1695652
1383236,1735696,1696051
1383529,1736156,1695785
1383473,1735977,1696021
1383583,1735872,1696370
1383214,1736012,1696407
1383026,1736024,1696758
1382833,1735631,1696921
1382355,1735375,1696561
1382435,1734677,1697108
1382446,1734556,1697230
1382201,1734648,1697533
1382142,1735077,1697750
1382236,1735174,1697640
1382354,1735900,1697911
1382053,1735517,1698021
1381947,1735802,1698097
1382254,1735994,1698391
1382168,1736120,1698177
1381738,1735819,1698038
1381908,1735713,1698087
1381741,1735522,1697046
1381901,1735662,1697445
1381817,1735600,1697777
1382184,1735329,1697421
1381799,1734978,1697356
1382068,1735239,1697935
1382262,1735298,1697745
1382235,1735533,1697810
1381958,1735686,1697804
1382119,1735906,1697910
1382113,1735774,1698062
1382240,1735905,1698473
1382460,1736184,1697877
1382560,1736146,1698202
1382826,1736896,1697668
1382932,1736431,1698116
1382896,1736616,1698311
1383321,1737106,1697982
1383327,1737240,1698045
1383374,1737329,1698655
1383142,1737369,1698748
1383434,1737074,1698655
1383277,1736930,1697840
1383613,1736811,1697985
1383319,1736587,1697450
1383278,1735734,1697372
1382779,1735318,1697209
1382445,1734758,1697126
1382608,1735068,1697378
1382665,1735088,1697455
1382513,1734899,1696555
1382477,1735395,1696577
1382078,1735415,1696852
1382074,1735358,1696623
1382205,1734974,1696102
1382212,1735271,1696174
1382329,1735295,1696534
1382103,1734754,1696730
1381746,1734876,1696571
1381959,1734973,1697514
1381835,1735165,1696323
1382076,1735072,1695729
1382629,1735031,1695579
1382319,1734595,1696157
1382058,1734846,1695707
1382084,1734964,1695356
1382168,1735175,1695703
1382011,1735282,1695944
1381661,1735267,1696572
1381682,1734770,1695958
1381345,1734841,1696001
1381920,1734900,1696337
1382018,1735230,1696014
1381660,1735642,1695921
1381531,1735124,1695696
1381723,1734755,1696033
1381693,1734691,1696482
1381716,1734830,1696036
1382034,1735070,1695715
1382220,1735072,1696004
1382268,1735471,1696240
1382049,1735387,1696548
1382293,1735355,1695889
1382463,1735696,1696295
1382364,1735800,1695481
1382607,1735176,1695891
1382537,1735060,1696251
1382677,1735273,1696458
1382795,1735098,1696615
1383080,1735973,1696371
1383257,1735531,1696763
1382619,1735364,1696102
1383455,1735277,1696406
1383435,1735009,1695834
1383384,1735380,1695961
1383169,1735021,1695743
1383621,1735335,1696029
1383814,1734920,1696154
1383075,1734010,1697164
1383160,1733464,1696903
1382590,1732758,1696613
1382576,1733371,1696427
1382475,1733544,1696646
1382646,1733633,1696596
1382345,1733962,1696981
1382452,1733608,1697068
1382009,1733450,1697382
1382143,1733762,1697305
1382142,1733523,1697050
1382118,1733235,1697230
1382097,1733023,1697143
1381903,1732522,1696976
1382154,1732224,1697179
1382033,1732275,1696735
1382226,1732818,1696767
1381854,1733248,1696879
1382355,1733645,1696509
1382263,1733598,1695807
1382130,1733948,1694975
1381997,1733809,1695191
1382215,1733400,1695172
1382478,1733217,1696342
1382364,1733181,1696004
1382202,1733073,1696058
1382281,1732244,1695254
1382216,1731845,1694838
1382248,1731909,1694671
1382536,1731545,1694345
1382617,1731648,1694436
1382652,1731233,1694556
1382687,1730805,1694739
1382737,1731494,1695176
1382841,1731477,1695210
1382974,1731875,1695440
1383033,1731753,1694995
1383153,1731986,1695126
1382976,1732001,1695251
1383123,1732227,1695297
1382912,1732665,1695845
1383114,1732541,1695390
1383188,1732473,1694784
1383268,1732413,1695132
1383396,1732289,1695470
1383271,1731976,1695265
1383380,1731395,1695488
1383371,1731614,1695425
1383856,1732216,1695282
1383343,1731819,1695578
1383097,1731326,1695532
1383259,1731886,1694601
1383128,1732145,1694778
1383244,1732301,1695237
1383104,1732658,1695729
1382565,1732967,1696059
1382746,1732930,1695759
1382823,1733009,1695752
1382714,1733166,1695315
1382708,1732961,1695234
1382512,1732716,1696019
1382388,1732801,1695647
1382572,1732810,1696201
1382751,1732600,1696293
1382816,1732399,1696488
1382738,1732272,1696704
1382628,1731769,1696121
1382847,1731823,1696816
1382802,1731739,1696571
1382557,1731826,1696047
1382599,1731665,1696125
1382599,1731193,1696494
1382329,1731016,1696519
1382347,1730881,1696560
1382460,1731030,1696962
1382447,1730847,1696840
1382412,1730336,1695933
1382279,1730438,1696249
1382398,1730746,1695594
1382322,1730705,1695968
1382575,1730754,1696245
1382510,1730764,1696374
1382517,1730720,1696722
1382364,1730280,1696736
1382587,1730459,1696791
1382935,1730722,1696685
1382974,1730797,1696934
1382996,1730730,1696330
1382966,1730929,1696761
1383055,1731290,1697010
1383327,1731019,1697715
1383405,1731446,1697327
1383490,1731420,1696554
1383366,1731503,1695781
1383265,1731500,1696194
1382527,1731456,1696161
1383468,1731142,1695241
1383382,1731199,1695700
1383553,1731087,1695076
1383536,1730968,1695208
1383987,1731069,1695370
1383648,1731513,1694906
1383976,1731503,1695285
1384132,1731104,1695486
1383931,1730366,1694852
1384214,1731035,1695042
1384283,1730728,1694903
1384418,1730274,1695239
1383471,1730451,1695101
1383693,1730178,1694637
1383679,1729843,1694805
1383773,1729542,1694651
1383745,1729126,1695281
1383535,1728921,1695614
1383551,1728444,1695301
1382790,1727849,1695140
1383411,1729058,1694802
1383374,1729354,1695493
1383194,1728680,1695394
1383312,1729056,1695120
1382886,1729017,1694738
1383502,1729089,1694797
1383550,1729225,1694863
1383568,1728914,1695534
1383252,1728795,1695644
1383288,1728654,1695699
1383200,1727880,1695259
1383624,1727772,1695472
1383319,1728205,1695576
1383479,1727840,1695786
1383588,1728063,1695178
1383595,1727904,1695030
1383677,1728155,1695675
1383766,1728170,1696162
1383695,1728043,1696108
1383904,1728790,1696926
1384246,1729206,1696423
1384346,1729838,1696128
1384817,1730623,1695969
1384992,1730713,1696664
1384768,1730242,1696460
1385146,1730344,1696333
1384981,1729932,1695896
1384716,1729751,1696184
1384969,1728777,1696627
1384675,1728307,1696137
1384510,1728544,1697182
1384475,1728206,1697122
1384326,1727753,1696928
1384165,1727756,1696692
1384225,1728696,1696461
1384460,1729038,1696601
1384460,1729245,1696543
1384564,1729409,1696834
1384496,1729467,1696646
1384581,1729912,1696498
1384543,1730108,1696556
1384576,1730929,1698057
1384623,1731436,1697875
1384416,1732010,1697969
1384481,1732194,1697967
1384594,1732844,1698303
1384491,1732905,1698596
1384604,1732876,1697696
1384614,1732451,1697572
1384552,1731958,1697586
1384392,1731718,1697746
1384599,1731285,1696901
1384613,1730248,1696262
1384703,1731065,1696131
1384569,1730821,1696157
1384484,1731341,1696263
1384746,1731743,1696067
1384775,1732026,1696161
1384632,1731915,1695258
1384877,1732633,1695257
1384875,1733464,1695149
1385396,1734373,1695283
1385375,1733959,1694912
1385399,1734127,1696124
1385581,1734461,1695305
1385534,1734101,1695006
1385336,1734259,1694806
1385597,1734139,1695221
1385388,1734413,1695475
1385086,1734312,1694709
1384861,1734200,1694274
1384970,1734114,1694756
1384800,1734061,1694591
1384718,1734188,1694865
1384810,1734086,1694855
1384319,1733805,1694478
1384296,1734021,1695134
1384165,1734066,1694432
1384193,1734258,1694573
1383856,1734079,1694653
1383468,1733162,1695169
1383054,1731069,1694978
1383193,1730694,1694796
1383029,1729825,1694439
1382873,1729314,1694963
1383067,1728730,1695305
1382674,1728684,1695931
1382378,1728401,1695292
1382402,1728177,1694994
1382666,1727869,1695159
1382361,1727744,1695069
1382035,1727883,1695096
1382090,1728001,1695931
1382091,1728349,1695411
1382253,1728591,1694972
1382389,1728891,1694991
1382255,1729197,1696161
1382726,1729341,1695492
1382134,1729383,1695907
1382007,1729714,1696032
1382133,1730093,1695659
1381900,1730611,1696260
1381900,1730985,1696556
1381796,1731589,1696641
1381909,1731829,1696836
1381937,1732715,1696945
1381982,1733464,1696899
1382019,1733978,1697183
1381533,1734357,1697395
1381888,1735517,1696822
1381968,1735444,1697056
1382139,1735543,1696972
1382148,1735526,1696960
1382214,1735071,1697656
1382024,1734853,1697164
1381998,1734819,1697027
1382158,1734590,1696783
1382086,1734416,1697053
1382411,1734017,1697208
1382211,1733444,1697066
1382211,1731938,1697536
1382282,1730865,1697114
1382276,1730828,1697296
1382232,1730040,1697169
1381683,1729669,1697452
1381917,1729242,1698326
1381671,1729076,1697961
1381710,1728011,1697295
1381268,1727178,1697253
1381270,1727061,1696866
1381121,1727340,1697403
1380834,1726899,1696994
1380205,1726337,1695938
1380272,1726230,1695556
1379798,1726401,1696416
1379627,1727377,1696469
1379467,1727686,1696364
1379245,1727941,1695757
1379278,1727672,1696282
1379075,1727685,1696208
1379121,1727796,1696474
1378727,1728302,1696821
1378536,1728267,1696164
1378665,1728660,1696119
1378678,1728471,1695822
1378721,1728813,1696000
1378295,1728403,1695677
1378180,1728436,1696434
1378217,1728736,1696258
1378175,1727742,1696257
1378066,1727962,1696070
1378414,1728141,1696654
1378136,1727968,1697467
1378546,1727821,1697697
1378335,1728268,1697216
1377900,1728356,1697539
1378325,1727966,1696885
1378005,1727704,1697476
1378209,1727830,1696405
1378140,1727896,1696396
1378045,1727476,1697286
1378122,1726947,1696750
1378306,1727342,1696228
1378208,1727819,1697041
1378462,1728412,1696925
1378543,1728057,1697311
1378595,1727999,1696224
1378431,1727938,1696930
1378550,1727965,1696632
1378557,1728284,1696903
1378317,1728492,1696956
1378317,1728346,1696705
1378431,1728213,1697145
1378414,1727488,1697539
1378548,1728480,1697769
1378793,1728084,1697913
1378766,1727768,1697861
1378668,1728133,1697411
1378650,1727908,1697590
1378719,1727875,1697895
1378401,1727652,1698091
1377977,1726482,1698082
1377005,1725937,1699003
1376783,1724535,1699929
1376185,1723972,1699805
1375853,1723380,1700377
1375918,1723809,1700476
1375801,1723878,1700769
1375717,1723846,1700337
1375586,1723990,1700458
1375355,1724345,1700570
1375626,1724206,1700887
1375141,1724074,1701156
1375392,1724644,1700877
1375089,1724888,1701395
1375050,1724969,1701370
1374801,1724837,1701245
1374650,1724383,1702025
1374883,1724618,1701669
1374894,1724811,1701738
1374835,1724811,1701360
1374909,1724922,1701455
1374590,1725254,1701668
1374538,1725340,1700559
1374861,1724909,1699939
1374776,1725076,1699548
1375124,1725521,1699028
1375063,1725544,1699490
1375469,1725921,1698638
1375276,1726258,1698800
1375224,1725613,1698360
1375231,1725895,1698859
1375577,1725541,1699651
1375275,1725219,1699433
1375048,1725178,1699046
1375201,1724442,1699615
1374396,1724319,1698806
1373686,1723779,1699225
1372915,1723787,1699528
1372825,1724208,1699216
1372008,1724156,1699490
1371688,1723871,1699078
1371955,1723965,1699117
1371683,1724084,1699432
1371841,1723939,1699678
1371557,1724154,1700097
1371213,1724877,1699597
1371262,1724559,1700113
1371245,1724131,1699957
1370981,1724210,1700602
1371062,1724411,1700068
1371044,1724077,1699937
1370827,1723754,1700077
1370740,1724033,1699666
1370623,1723871,1700255
1371430,1723867,1699451
1371062,1723782,1699177
1370997,1723743,1699761
1370902,1723388,1699626
1370434,1723636,1698956
1370592,1723776,1699676
1370558,1723604,1700217
1370542,1723966,1700762
1370609,1723661,1699752
1370496,1724648,1700333
1370420,1724212,1700270
1370372,1724121,1700574
1370001,1724165,1700587
1370264,1723782,1700402
1370474,1723850,1700594
1370523,1723537,1700828
1370497,1723415,1700700
1370577,1723267,1701138
1371083,1723574,1701231
1370948,1723529,1700909
1371068,1723653,1700815
1370978,1723496,1701467
1371085,1723257,1701429
1371019,1723534,1701802
1370864,1723756,1702148
1370966,1724255,1701650
1370894,1724247,1701623
1370894,1724165,1701682
1370790,1724008,1702122
1370956,1723988,1702391
1371087,1724070,1701407
1371148,1723894,1701318
1371067,1723572,1701687
1371302,1723678,1702303
1371442,1723774,1702248
1371260,1723774,1701712
1371182,1723793,1701893
1370860,1723282,1702184
1370574,1722695,1701341
1370489,1722444,1701785
1370188,1722273,1700994
1370094,1722077,1701407
1369970,1722049,1701175
1369903,1721881,1701265
1369591,1721687,1701093
1369230,1721800,1700763
1369106,1721941,1700648
1368812,1722299,1700946
1368545,1722272,1700547
1368545,1722470,1700308
1368398,1722386,1700178
1368140,1722461,1700561
1368108,1722280,1700531
1368025,1722297,1700748
1367834,1721578,1700805
1367447,1721461,1700488
1367418,1721737,1700485
1367398,1721405,1701070
1367241,1721982,1700698
1366948,1722060,1701233
1366866,1722141,1700998
1366781,1722180,1701233
1366480,1721760,1700765
1366017,1721020,1700523
1366263,1721362,1701218
1366196,1721339,1701039
1366279,1721398,1701085
1366099,1721488,1701296
1365953,1721784,1701409
1366308,1721514,1700905
1366184,1721769,1701260
1366431,1722264,1701039
1366286,1722442,1701042
1366422,1722523,1700799
1366971,1722405,1701902
1366429,1722425,1701121
1366934,1723118,1701992
1366936,1722705,1701507
1367050,1722941,1701769
1366968,1723387,1702072
1366769,1723085,1702347
1366785,1722840,1701698
1367001,1722669,1702371
1367103,1723148,1702410
1367362,1723001,1702345
1367134,1722201,1701916
1367092,1722364,1702229
1367053,1722507,1702835
1367382,1722326,1701995
1367675,1722598,1702458
1367755,1722425,1702638
1367763,1722279,1702764
1367789,1721884,1702855
1367582,1721981,1703050
1367330,1721759,1702852
1367113,1721633,1702406
1366867,1721572,1702987
1366037,1720758,1702748
1366017,1721273,1702025
1365913,1721074,1702596
1365578,1721410,1702487
1365362,1721552,1703589
1364989,1721475,1703492
1364641,1721887,1703140
1364369,1721858,1703055
1363896,1721972,1703083
1363876,1722286,1703548
1363764,1722080,1704079
1363462,1721816,1703729
1363513,1721877,1703164
1363448,1721903,1703683
1363523,1721815,1703334
1363623,1721967,1702780
1363193,1721056,1702463
1363019,1721073,1702104
1363020,1721006,1702038
1363330,1721922,1701974
1363307,1721799,1701199
1363732,1721856,1701512
1363563,1722192,1702481
1363639,1721868,1701858
1363497,1722170,1701953
1363736,1722466,1701582
1363772,1723814,1701906
1363939,1723155,1702031
1363363,1723252,1702393
1364181,1723541,1702021
1364828,1723334,1702056
1364599,1723075,1702320
1364862,1722496,1701976
1364898,1721513,1702122
1365086,1722027,1701901
1365181,1721676,1701923
1364895,1722013,1701682
1365017,1721774,1701730
1365302,1721446,1701125
1365007,1721126,1700751
1364573,1720969,1701700
1364172,1721193,1701320
1363723,1721731,1700582
1363085,1721433,1701222
1362725,1720864,1701960
1362608,1721143,1701847
1362655,1720544,1701272
1362499,1721454,1700875
1362485,1720789,1700802
1362236,1720322,1702015
1362075,1720126,1702088
1362051,1720292,1701811
1361978,1720438,1701953
1362023,1720638,1702650
1362044,1720599,1702929
1361745,1721098,1703293
1361894,1721096,1703215
1361716,1721002,1703026
1361466,1720041,1703079
1361834,1720403,1703313
1361748,1720254,1704054
1361965,1720691,1703480
1361554,1720641,1703139
1361664,1720509,1703564
1361822,1720640,1703691
1361916,1720380,1703838
1361945,1720232,1704062
1362092,1720182,1703619
1361943,1719790,1703901
1361963,1720056,1703405
1362180,1719989,1703481
1362464,1719889,1703632
1362384,1719942,1704019
1362556,1720211,1703327
1362364,1720031,1703743
1362730,1720487,1703153
1362733,1720724,1703393
1362842,1721219,1703940
1362557,1721452,1703725
1362557,1721432,1704250
1362636,1721504,1704102
1362739,1721790,1704873
1363012,1721649,1704702
1363022,1721627,1705237
1362969,1721562,1705028
1362922,1722027,1704408
1363298,1722128,1704436
1363535,1722362,1704663
1363602,1722411,1704507
1363673,1722745,1704001
1363815,1722548,1704085
1363741,1722103,1703439
1363787,1722069,1702653
1363982,1722004,1702838
1364237,1721559,1703534
1364228,1721247,1702437
1364206,1720992,1702674
1364538,1720967,1702896
1364470,1721408,1702462
1364491,1721164,1702621
1364289,1721579,1702193
1364155,1721910,1702223
1364155,1721697,1702475
1364130,1721633,1702319
1364163,1721355,1702467
1364030,1721261,1702004
1363764,1720544,1701711
1363939,1720555,1702055
1363449,1720685,1702532
1363575,1720383,1701666
1363249,1720266,1702351
1363102,1720464,1702786
1362935,1720894,1702499
1363160,1721546,1702373
1363318,1721559,1702047
1363193,1721699,1702342
1363386,1721823,1702750
1363427,1721419,1702193
1363360,1721472,1702914
1362929,1721208,1702986
1362808,1721137,1703151
1363162,1720698,1703141
1363064,1720362,1702982
1363108,1720645,1702846
1363131,1720259,1703200
1363004,1720246,1703594
1363347,1720459,1703308
1363453,1721029,1703538
1363883,1721196,1703833
1363791,1721082,1703806
1364056,1721481,1703473
1364117,1721387,1703591
1364018,1721314,1703699
1364271,1721628,1704466
1364424,1721900,1704301
1364291,1721916,1704784
1364715,1721841,1705219
1364494,1721993,1704907
1364685,1721740,1704255
1364782,1721800,1704365
1365310,1722192,1703898
1365678,1722194,1704242
1365910,1721744,1704003
1365952,1721859,1704420
1365757,1721330,1703815
1365753,1720935,1705127
1365458,1720692,1704620
1365016,1720680,1704429
1365442,1720063,1704819
1364785,1720297,1705026
1365213,1720960,1704993
1365519,1721679,1704755
1365847,1722010,1705325
1365686,1722377,1705387
1365334,1721359,1705285
1366052,1721576,1705236
1365965,1721482,1705099
1365889,1721377,1704641
1365858,1721482,1704291
1365598,1721360,1704690
1364858,1721325,1704129
1365806,1721097,1703368
1366854,1721190,1703656
1366128,1721842,1703005
1366687,1722688,1703083
1366774,1722813,1702998
1366788,1722766,1702735
1367070,1723716,1703546
1367384,1723552,1702811
1367145,1723410,1702912
1367088,1723850,1702906
1367360,1723644,1703756
1367614,1723637,1703555
1367718,1723537,1703815
1368168,1723467,1702784
1368392,1723752,1703335
1368505,1723469,1702952
1368172,1722494,1702839
1368075,1722425,1703455
1368131,1722213,1703247
1368086,1722462,1703270
1368018,1722461,1703758
1367830,1722017,1704193
1368067,1722630,1703473
1367935,1723011,1703808
1368480,1723524,1703760
1368368,1723518,1703892
1368735,1723952,1703941
1368685,1723929,1703386
1368805,1723633,1703401
1368606,1723522,1703815
1368758,1723608,1704341
1368712,1723839,1704203
1368491,1723931,1704361
1368579,1723530,1704314
1369070,1723041,1704992
1368837,1723090,1704258
1368937,1722885,1704129
1368767,1722861,1704411
1368811,1723016,1705295
1369175,1723323,1704897
1369514,1723650,1705473
1369588,1724278,1705097
1370071,1724256,1705433
1370047,1725146,1706149
1370017,1724722,1705466
1370161,1725198,1704789
1370048,1725342,1705601
1370178,1725249,1705147
1370295,1725077,1706087
1370391,1724867,1705835
1370434,1724810,1706002
1370691,1724677,1705280
1370459,1724207,1705608
1370638,1724434,1705479
1370517,1724396,1705765
1370841,1723955,1705568
1370630,1722965,1705999
1370312,1722743,1705285
1369977,1722420,1706171
1370385,1722810,1706269
1370504,1723044,1707142
1370344,1723421,1707029
1370045,1723273,1707475
1370020,1723683,1707134
1370170,1723275,1707308
1370063,1723404,1707561
1370026,1723111,1706440
1370119,1723117,1705935
1370059,1723211,1706033
1369967,1723288,1705968
1370277,1723240,1705106
1370483,1723624,1705830
1370495,1723681,1705351
1370439,1723337,1705299
1370494,1723296,1705278
1370647,1723446,1705445
1370656,1723605,1705308
1370808,1723424,1705952
1370548,1723289,1706441
1370484,1723051,1705960
1370863,1722989,1705609
1370679,1722701,1705123
1370747,1723194,1705917
1370750,1723397,1705312
1370731,1723161,1705779
1370735,1723397,1705056
1371156,1724277,1705094
1371452,1724461,1706208
1371415,1724095,1706285
1371827,1724038,1705465
