GREEN,RED,IR
1679803,1495915,1558201
1680889,1496018,1557974
1681234,1495821,1557974
1682052,1495816,1557632
1682063,1495440,1557316
1682125,1495279,1557973
1682454,1495418,1557436
1682460,1495649,1556762
1682811,1495744,1557236
1682724,1496351,1556455
1682687,1496014,1556771
1682687,1496042,1557118
1682892,1495761,1557455
1683120,1495810,1558123
1683553,1495837,1558700
1683712,1495528,1558815
1684035,1495196,1559046
1684408,1495386,1558326
1684675,1495572,1559181
1685029,1495349,1559257
1684810,1495494,1559558
1684764,1495566,1559301
1684545,1495677,1558955
1684307,1496037,1559009
1684292,1496177,1559169
1684010,1495956,1558455
1683796,1495232,1558315
1683147,1494598,1557538
1682323,1494120,1556545
1681348,1493704,1555273
1680935,1493235,1554792
1679772,1492996,1553903
1678526,1492768,1553121
1678526,1492612,1551881
1677424,1492491,1552627
1676908,1492782,1552138
1676178,1492634,1551655
1675570,1492739,1550517
1675056,1492911,1549941
1674306,1494151,1549381
1674422,1494722,1549830
1674634,1494974,1550282
1674848,1495194,1550419
1675372,1495040,1550645
1675566,1495092,1550919
1675617,1495469,1550996
1676344,1495515,1551108
1677116,1495621,1551170
1677330,1495872,1551412
1677354,1495854,1552113
1677898,1495963,1552524
1678190,1495964,1553402
1678426,1496037,1553629
1678667,1495843,1553669
1678633,1495850,1554026
1678633,1495648,1553756
1678827,1495609,1554214
1678905,1495329,1554600
1679223,1495347,1554918
1679430,1494826,1558064
1679975,1494294,1556037
1679641,1494226,1555203
1679777,1494133,1554611
1679702,1494209,1556920
1679775,1493838,1554685
1679676,1494058,1554110
1679617,1493617,1553055
1679118,1494241,1554573
1679303,1494548,1548874
1679462,1494992,1546574
1679525,1495124,1544490
1679519,1495250,1541724
1679711,1495469,1539960
1679560,1495981,1537853
1680251,1496208,1535987
1679843,1496936,1534670
1679474,1497056,1533484
1679491,1497385,1532253
1679491,1497720,1531681
1680043,1498089,1530387
1680352,1498303,1530141
1680237,1498430,1529926
1680473,1498500,1529601
1680534,1498812,1529984
1680485,1499832,1530632
1680511,1500187,1531029
1680882,1500879,1531350
1680492,1501334,1531247
1680608,1501370,1531768
1680853,1501544,1531661
1681178,1501141,1532076
1681671,1501330,1532817
1682342,1501881,1533660
1682262,1501539,1532654
1682211,1501551,1533582
1682495,1501882,1534034
1682438,1502196,1533943
1682892,1502012,1533805
1682482,1502597,1533972
1682619,1502598,1533993
1682619,1502784,1533687
1683043,1502343,1533264
1683443,1502328,1532818
1683376,1501549,1532133
1683664,1500419,1533309
1683641,1499506,1532280
1682868,1497253,1531319
1682187,1496492,1531854
1681609,1495513,1531366
1681321,1494280,1530893
1680219,1492908,1531608
1679248,1491908,1531775
1678393,1491423,1531848
1677802,1490984,1531859
1677363,1490505,1531823
1677230,1490077,1532662
1676992,1489712,1533786
1676712,1489254,1533172
1676670,1489216,1534515
1676643,1488945,1535404
1676342,1489266,1535494
1676168,1489546,1535573
1676168,1489411,1535957
1676257,1489403,1536787
1676366,1489263,1537223
1676522,1489563,1537919
1676670,1489436,1538532
1676804,1489513,1538236
1677427,1490098,1538922
1677629,1490324,1539257
1677815,1490222,1539528
1678125,1490270,1538689
1678342,1490386,1538153
1678646,1489770,1539754
1678640,1489773,1540851
1678879,1489568,1540089
1679618,1489453,1540017
1679416,1489080,1540625
1679530,1489027,1540028
1680091,1488535,1540986
1679649,1488421,1541057
1679527,1488495,1541900
1679389,1488754,1541225
1679143,1488724,1541900
1679143,1488791,1541611
1679214,1488500,1543727
1679264,1488529,1543157
1679421,1488781,1544158
1679597,1488688,1543966
1679742,1488554,1544537
1680185,1488953,1544114
1680222,1489123,1545659
1680770,1489312,1546027
1680978,1489780,1546470
1681029,1489656,1547985
1681246,1489682,1549105
1681234,1489569,1549903
1681599,1489881,1550586
1681584,1490111,1551837
1682369,1490718,1552408
1682346,1490649,1553589
1682544,1490908,1553357
1682546,1490746,1553775
1683350,1491119,1553502
1683432,1491852,1553714
1683375,1491949,1553709
1683390,1491979,1553563
1683390,1492219,1552026
1683630,1491957,1551317
1683836,1492263,1550217
1684164,1492352,1549102
1684317,1492625,1545721
1684450,1492269,1544118
1685037,1492593,1541130
1685182,1493210,1540226
1685134,1492835,1537554
1685692,1493600,1535216
1685754,1493175,1532070
1686025,1493234,1531134
1686075,1493318,1529449
1686462,1493683,1528422
1686560,1493683,1526997
1686923,1493879,1526863
1686878,1493349,1526217
1686937,1492871,1526797
1686908,1492253,1527670
1686666,1491540,1528689
1686429,1490458,1529446
1685730,1489907,1529981
1685058,1488464,1530822
1685058,1487494,1531468
1684226,1486201,1531979
1683582,1485298,1534079
1682919,1484424,1534803
1682343,1483541,1535907
1681617,1482711,1536995
1680537,1482196,1537909
1680119,1482494,1538687
1679852,1482207,1539696
1679700,1482531,1540050
1679523,1482396,1540883
1679487,1482512,1541034
1679458,1482407,1541953
1679423,1483024,1541926
1679962,1483206,1541728
1680178,1483592,1541843
1680085,1484048,1542514
1680126,1483995,1542512
1680307,1484328,1541743
1680531,1484697,1542102
1680671,1485296,1542642
1680517,1485510,1543627
1680517,1485687,1543841
1680607,1485656,1545325
1680925,1485428,1546120
1680894,1485635,1546187
1681613,1485479,1546198
1681166,1485266,1546120
1681350,1485135,1546371
1680773,1485210,1546872
1681094,1485198,1547354
1681154,1485079,1548042
1681085,1485535,1548397
1681360,1484932,1549311
1680866,1484738,1549998
1680763,1484970,1551093
1680987,1485162,1551429
1681786,1485649,1551806
1681452,1485548,1552139
1681433,1485732,1552028
1681490,1485983,1552779
1681546,1486179,1553405
1681969,1486370,1553654
1681774,1486869,1553805
1681774,1486962,1554032
1681419,1487203,1553860
1681659,1487565,1554436
1681896,1487911,1554798
1681817,1488145,1555316
1681942,1488028,1554933
1681987,1488252,1555402
1682405,1488951,1556198
1682393,1489249,1556563
1682670,1489465,1555682
1682726,1489921,1556409
1682912,1489795,1557082
1682939,1489970,1556795
1683237,1490355,1557700
1683294,1490692,1558993
1683748,1490917,1559861
1683732,1491245,1560841
1683581,1491245,1560445
1683921,1491293,1560638
1683835,1491597,1560716
1684086,1492018,1561344
1684029,1492557,1560582
1683789,1492842,1560697
1683789,1493190,1561029
1683960,1493398,1560651
1683936,1493620,1561857
1684312,1493733,1562066
1684370,1493439,1562476
1684383,1493623,1561970
1684730,1494395,1562413
1684885,1494598,1562877
1684762,1494484,1562752
1684993,1494367,1562301
1684736,1493882,1563288
1684414,1492989,1563593
1683849,1492093,1564851
1683530,1491779,1565218
1683056,1491031,1564397
1682543,1490272,1564123
1681551,1489399,1563015
1681035,1488618,1561998
1680306,1488271,1560651
1679738,1487967,1560004
1679021,1487974,1557715
1678250,1488126,1555596
1678250,1488017,1552969
1677863,1488103,1550402
1677681,1488370,1549185
1677064,1488238,1547928
1677147,1488495,1546091
1677037,1488664,1547144
1676760,1489455,1544038
1676843,1489746,1543641
1677035,1489757,1543444
1677244,1490546,1545490
1677132,1490516,1543993
1677055,1490724,1543880
1677060,1491178,1544490
1677426,1491104,1544014
1677489,1491435,1543652
1677768,1491734,1544565
1677742,1491809,1545860
1677761,1491628,1546245
1677574,1491685,1546667
1677251,1491711,1548089
1677440,1492186,1548366
1677114,1492099,1549480
1677114,1491968,1549859
1676948,1492055,1550339
1677173,1491792,1550945
1677158,1491811,1551128
1676847,1491601,1551450
1676641,1491331,1552263
1676555,1491122,1552425
1676570,1491937,1553186
1676424,1492037,1552646
1676390,1492338,1552677
1676325,1492629,1552452
1676324,1492321,1552304
1676137,1492630,1551919
1676165,1492930,1552110
1676223,1493127,1550879
1676475,1493273,1552297
1676403,1493628,1551932
1676542,1493706,1552862
1676480,1493772,1553500
1676784,1494084,1553772
1676695,1494221,1554241
1676896,1494416,1553515
1676544,1494697,1553293
1676544,1494948,1554440
1676570,1494938,1555738
1676616,1495278,1555786
1676666,1495579,1555298
1676598,1495586,1555925
1676627,1495668,1555779
1676823,1495982,1555916
1676478,1496326,1555675
1676802,1496697,1555066
1677193,1496747,1554790
1677243,1496800,1555388
1677221,1496638,1555688
1677330,1496880,1555933
1677426,1497042,1556119
1677818,1497137,1557148
1677920,1497406,1557711
1677830,1497397,1557176
1678286,1497402,1558223
1678165,1497957,1557324
1678324,1497947,1558012
1678578,1498278,1558511
1678302,1498309,1558778
1678302,1498474,1558854
1678500,1497951,1559361
1678478,1497414,1560255
1678450,1497084,1560446
1678209,1496441,1560027
1677675,1495384,1560526
1676370,1494017,1560374
1675650,1493470,1560918
1675049,1492787,1560399
1674392,1492258,1560004
1673723,1491816,1561076
1673187,1491205,1562307
1672927,1490758,1562484
1672553,1490617,1561988
1672263,1490582,1562676
1672274,1490536,1563076
1671976,1490609,1562766
1671481,1490590,1562894
1671141,1490659,1562986
1671275,1491078,1562987
1670986,1491514,1563594
1670737,1491925,1563468
1670737,1491953,1563565
1670621,1492440,1563170
1670609,1492346,1566429
1670780,1492774,1564926
1670907,1492680,1564938
1671040,1493092,1564648
1670835,1493656,1564747
1670445,1494015,1564769
1670483,1494505,1565272
1670297,1494541,1564246
1670182,1494642,1562826
1669825,1494650,1561999
1669528,1494850,1560934
1669383,1494991,1556225
1668956,1495224,1554351
1669310,1495075,1551899
1669297,1495545,1549901
1669145,1495221,1547486
1669179,1495558,1545343
1669351,1495592,1542446
1669274,1495905,1540974
1669024,1496081,1540025
1669024,1496280,1539071
1668942,1496365,1538169
1668918,1496440,1537120
1668991,1496350,1536618
1669190,1496480,1536635
1669376,1496145,1535539
1669560,1496317,1536773
1670220,1496517,1536992
1670187,1496727,1536748
1670331,1496866,1536303
1670518,1497255,1536091
1670475,1496980,1536062
1670382,1496872,1536794
1670748,1497362,1537034
1670910,1497068,1537707
1671377,1497370,1537678
1671604,1497194,1536942
1671238,1497639,1537455
1671571,1497593,1537207
1671738,1497849,1537768
1671796,1497979,1537709
1672004,1498401,1537828
1671868,1498371,1537119
1671868,1498499,1536804
1672154,1498350,1536071
1672220,1498573,1536342
1672448,1498925,1536293
1672495,1498551,1536601
1672781,1498529,1536626
1673258,1498925,1536153
1673532,1499199,1536912
1673720,1499341,1537192
1673957,1499488,1537614
1674070,1499239,1537824
1674097,1499047,1538168
1673938,1499391,1537958
1674296,1499382,1539091
1674795,1499440,1538888
1674888,1499582,1539964
1675031,1499517,1539917
1675546,1499648,1540164
1675682,1499870,1540650
1675621,1499965,1541659
1675785,1500394,1541081
1675798,1500367,1542254
1675798,1500012,1542699
1675836,1499508,1542053
1675888,1498870,1542556
1675905,1498140,1543410
1675678,1497094,1543437
1675255,1495912,1544423
1674041,1494402,1544289
1673644,1493471,1544636
1673109,1493043,1544732
1672519,1492582,1544816
1672021,1491896,1545103
1671449,1491502,1544476
1671140,1491220,1544367
1670937,1490894,1544045
1670744,1491008,1543939
1670550,1490933,1544370
1670492,1490765,1545341
1670115,1490653,1545204
1670019,1490726,1544853
1670134,1490933,1544403
1670433,1491476,1545343
1670235,1491381,1545988
1670235,1491354,1546187
1670247,1491323,1546216
1670341,1491385,1546482
1670459,1491509,1547275
1670644,1491328,1546883
1670812,1491238,1548176
1670984,1491260,1548535
1671031,1491734,1549323
1670910,1491396,1550218
1671071,1491223,1550569
1671019,1491157,1550503
1670645,1490761,1550622
1670591,1490528,1550274
1670533,1490420,1549992
1670549,1490409,1550427
1670989,1490384,1551924
1670802,1490294,1551903
1670598,1489925,1551822
1670419,1490003,1552223
1670344,1490092,1552561
1670281,1490373,1552818
1670175,1490661,1553477
1670119,1490637,1552881
1670119,1490542,1552852
1670126,1490557,1553100
1670155,1490844,1553674
1670267,1491016,1553024
1670185,1490893,1551931
1670063,1491444,1550221
1670549,1491474,1548371
1670573,1491460,1547043
1670610,1491969,1546274
1670610,1492352,1542839
1670714,1492037,1541498
1670681,1491905,1539694
1670961,1492423,1537822
1671077,1492560,1536129
1671148,1492703,1534004
1671296,1492688,1532495
1671480,1492812,1531685
1671783,1492807,1533895
1671792,1493278,1531453
1672271,1493250,1531454
1672046,1493590,1531731
1671668,1493620,1533961
1671668,1493615,1533652
1671705,1493413,1534809
1672105,1493842,1534959
1672180,1493828,1536234
1672285,1493912,1536099
1672433,1493685,1535781
1672599,1493873,1535387
1672781,1493919,1535870
1673025,1494015,1537115
1673293,1494204,1538258
1673666,1494148,1537797
1673477,1493956,1539024
1673829,1493878,1539208
1674224,1494081,1539592
1674541,1494112,1540596
1674977,1494262,1540932
1675213,1494340,1541238
1675418,1494158,1541599
1675483,1494152,1542142
1675760,1494111,1542900
1675643,1493863,1542972
1675328,1493677,1543546
1675328,1492928,1544117
1675129,1492408,1543584
1674852,1491503,1544728
1674716,1490663,1545206
1674313,1489413,1545272
1673860,1488464,1545317
1672115,1487165,1545340
1671493,1486894,1545003
1671131,1486512,1545547
1670647,1485592,1545318
1670202,1485602,1544981
1669934,1485302,1544748
1669561,1485378,1543753
1669465,1485456,1543431
1669583,1485488,1542649
1669461,1485417,1542810
1669500,1485715,1541428
1669389,1486344,1541482
1669362,1485763,1540167
1669459,1485851,1540139
1669533,1486031,1538994
1669634,1486294,1538255
1669669,1486505,1536949
1669669,1486248,1536370
1669811,1486397,1535694
1669912,1486281,1535678
1669937,1486241,1535087
1669928,1486269,1535037
1670123,1485872,1534102
1669904,1485945,1533501
1669677,1485690,1533125
1669687,1485748,1533657
1669836,1485320,1532722
1669531,1485466,1532981
1669536,1485350,1533410
1669251,1485248,1533692
1669419,1485124,1533984
1669592,1485026,1534347
1670068,1485162,1535871
1670072,1485222,1536223
1669989,1484947,1536607
1670176,1484993,1536398
1670155,1484961,1537595
1670084,1485023,1536693
1670347,1485232,1537851
1669978,1485269,1537969
1669978,1485496,1537544
1670294,1485430,1537932
1670302,1485595,1539932
1670599,1485590,1539624
1670640,1485411,1539444
1670624,1485484,1539248
1670574,1485825,1540479
1670926,1486029,1540973
1671063,1486009,1541126
1671500,1486473,1540325
1671576,1486592,1541586
1671364,1486475,1542447
1671458,1486480,1542120
1671581,1486607,1541656
1672106,1486912,1542655
1672381,1487026,1541886
1672124,1487335,1542231
1672502,1487146,1541769
1672457,1487417,1541943
1672392,1487628,1542844
1672556,1487397,1542202
1672614,1488058,1541286
1672614,1488237,1539566
1672723,1488288,1537761
1672868,1488255,1535823
1672844,1488281,1533827
1673026,1488744,1531404
1673146,1488430,1529657
1673660,1488677,1527305
1673600,1489313,1526002
1673765,1489342,1523268
1674016,1489683,1521569
1674216,1489535,1520436
1674478,1489448,1518563
1674260,1489341,1517685
1674556,1489621,1515306
1674620,1489198,1514846
1674747,1489242,1515679
1674723,1488237,1515371
1674596,1487974,1516214
1674418,1487134,1516299
1673650,1486334,1517225
1673049,1485487,1516694
1672219,1485231,1517135
1671379,1484216,1517644
1671379,1483738,1518447
1671152,1482871,1519285
1670555,1482449,1520889
1670041,1482069,1520777
1669491,1481713,1520703
1668986,1481050,1521624
1668180,1481000,1522422
1667936,1481387,1523324
1667798,1481251,1522950
1667742,1481812,1523007
1667414,1481383,1522858
1667136,1481681,1522887
1667011,1481602,1522124
1666960,1481879,1521990
1667143,1482154,1522432
1667538,1482369,1521776
1667537,1482449,1522118
1667531,1482432,1521968
1667423,1482442,1521880
1667873,1482881,1521925
1667540,1483167,1522533
1667553,1483260,1522811
1667553,1483036,1523034
1667547,1483254,1523934
1667573,1482701,1523167
1667371,1482936,1524051
1667852,1482693,1524121
1667825,1482160,1524384
1667669,1482039,1524637
1667251,1482124,1525227
1667218,1482058,1525834
1667104,1481883,1526080
1666969,1481963,1526332
1666948,1481744,1527244
1666863,1481867,1527964
1667110,1481830,1528504
1667187,1481993,1528144
1667481,1482212,1529117
1667577,1482330,1528757
1667707,1482070,1529375
1667697,1482285,1529145
1667727,1482461,1528965
1667788,1482874,1529375
1667679,1483007,1529646
1667634,1483424,1529653
1667634,1483470,1529475
1667738,1483329,1530108
1667848,1483763,1530319
1667996,1483464,1530670
1668333,1484194,1530886
1668335,1483742,1531369
1668848,1483688,1533596
1669081,1484023,1533817
1669124,1484217,1535083
1669160,1484203,1537002
1669311,1484592,1537858
1669567,1484127,1537986
1669929,1484416,1539062
1670169,1484712,1539139
1670457,1484700,1539544
1670532,1484657,1539293
1670498,1484814,1540573
1670458,1484672,1540779
1670662,1485122,1541233
1670911,1485234,1541153
1670891,1485707,1542187
1670695,1485707,1542265
1670695,1485844,1542301
1670867,1486200,1543727
1671097,1485993,1543690
1671279,1486167,1543994
1671446,1486248,1544221
1671427,1486173,1544549
1671320,1486707,1545206
1672032,1486822,1545351
1672231,1486879,1544999
1672419,1487067,1545138
1672350,1486969,1545616
1672557,1486316,1546440
1671988,1485610,1547229
1671703,1485130,1547293
1671929,1484659,1547593
1671533,1483733,1547827
1670730,1482983,1548256
1670102,1481746,1548682
1669292,1480828,1548836
1668568,1480340,1548921
1667758,1480297,1548577
1667006,1479852,1549019
1667006,1479477,1548670
1666178,1479104,1548904
1665646,1479117,1546682
1665376,1478853,1544801
1665283,1478697,1543819
1664767,1478443,1540934
1663915,1478640,1539563
1663722,1479118,1539947
1663989,1478817,1536450
1663935,1479521,1534266
1663985,1479430,1532045
1663905,1479558,1531020
1663728,1479423,1528447
1663924,1479964,1527463
1663772,1480184,1530611
1664332,1479702,1527769
1664589,1480117,1528051
1664630,1480367,1528191
1664637,1480377,1530068
1664671,1480461,1529287
1664859,1480582,1529343
1664697,1480920,1527935
1664268,1480901,1528981
1664268,1480735,1528331
1664189,1480769,1529092
1664239,1480684,1528973
1664158,1480463,1529523
1664087,1480321,1530327
1663762,1480260,1530850
1663719,1480416,1531498
1663668,1480856,1531287
1663627,1480740,1530696
1663686,1481027,1530699
1663679,1481319,1530628
1663699,1481206,1530210
1663820,1481356,1530265
1663945,1481471,1530273
1664139,1481773,1530138
1664651,1482100,1529616
1664485,1482236,1529410
1664574,1482348,1529431
1664588,1482558,1530245
1664941,1482895,1529011
1665193,1483032,1529974
1664956,1483588,1529782
1664990,1483359,1530740
1664990,1483817,1531462
1665010,1483940,1531818
1665232,1484289,1532258
1665441,1484346,1533505
1665489,1484422,1533839
1665515,1484508,1534592
1666013,1484960,1534063
1666093,1485446,1534596
1666209,1485390,1533746
1666439,1485597,1534751
1666761,1485761,1535257
1666663,1485790,1535413
1666642,1485615,1535359
1666836,1486034,1536017
1667329,1486039,1535607
1667805,1486370,1535471
1667695,1486571,1536111
1667962,1486743,1535633
1667805,1486627,1536502
1667945,1487101,1536854
1668164,1487318,1536999
1668086,1487893,1537248
1668086,1487986,1537069
1668208,1488007,1537225
1668518,1488014,1538146
1668501,1488521,1537862
1668909,1488530,1538574
1669135,1488201,1538478
1669188,1488768,1539563
1669195,1488977,1539299
1669037,1488771,1539557
1668875,1488273,1539329
1668708,1487705,1539757
1668535,1486525,1540376
1667802,1485408,1539754
1666988,1484765,1540478
1666404,1484065,1540815
1665951,1483120,1541477
1665210,1482811,1542523
1664652,1482039,1543866
1664050,1481617,1544333
1663415,1481449,1544634
1662862,1481156,1544624
1662657,1481474,1544730
1661824,1481510,1545237
1661824,1481375,1545805
1661530,1481595,1545833
1661331,1481593,1546347
1661272,1481690,1546906
1661068,1481882,1547590
1661267,1481747,1547836
1661446,1482012,1548125
1661445,1482451,1547835
1661415,1482463,1548221
1661677,1482674,1547948
1661814,1483216,1548803
1661912,1482780,1548778
1662016,1483043,1548426
1662417,1483136,1546930
1662523,1482951,1545054
1663134,1482989,1543790
1663464,1482872,1542035
1663347,1482499,1540294
1663143,1482454,1537861
1663026,1482461,1536587
1663177,1482799,1533740
1662900,1482598,1532688
1662900,1482920,1530610
1662733,1482497,1529579
1662947,1482254,1528228
1663111,1482319,1527773
1663084,1482035,1527308
1663030,1481889,1526963
1663067,1481963,1526828
1663541,1482444,1526198
1663562,1482574,1525650
1663605,1482749,1524612
1663778,1482884,1525155
1663882,1482961,1525498
1663872,1482980,1526467
1664163,1483341,1526175
1664245,1483348,1526153
1664636,1483766,1526323
1664652,1483664,1526601
1664964,1484067,1527615
1664906,1483835,1528303
1665101,1484570,1529181
1665332,1484677,1530125
1665361,1485344,1530434
1665024,1485265,1531425
1665011,1485708,1531601
1665011,1485625,1531653
1665317,1485981,1531441
1665692,1486299,1531604
1665874,1486298,1531106
1665893,1486056,1531322
1666272,1486811,1531765
1666465,1487254,1531489
1666633,1487370,1531126
1666638,1488065,1531254
1666796,1487975,1531420
1666939,1488242,1532527
1667082,1488232,1533159
1667283,1488716,1533454
1667601,1488778,1533540
1668152,1489253,1534330
1668295,1489178,1534799
1668289,1489346,1536153
1668457,1489387,1537092
1668478,1489824,1537369
1668873,1489934,1538126
1668994,1490483,1541382
1668774,1490666,1540407
1668774,1490574,1540396
1669171,1490802,1540281
1669372,1490994,1542725
1669519,1491052,1541397
1669655,1491563,1541215
1669876,1491209,1542429
1670376,1491521,1543782
1670540,1491970,1544109
1670722,1491256,1544691
1670833,1490900,1544929
1670387,1490111,1547119
1670020,1489266,1547283
1669446,1488451,1548052
1669182,1487606,1548344
1668433,1486570,1549010
1668298,1485881,1549668
1667613,1485148,1549996
1667019,1484178,1550952
1666408,1483643,1550227
1665815,1483114,1550576
1665396,1482868,1551115
1664915,1482731,1552336
1663938,1482665,1552524
1663938,1482571,1552974
1663867,1482099,1553008
1663605,1482317,1553253
1663602,1482462,1553412
1663422,1482482,1553862
1663244,1482653,1553840
1663629,1483168,1553911
1663535,1483706,1554247
1663836,1483832,1554667
1664174,1484264,1555120
1663676,1484153,1555225
1664238,1484281,1556006
1664325,1484403,1557064
1664635,1484732,1556693
1664734,1484783,1557032
1665041,1484888,1557492
1664985,1485079,1558067
1664896,1484678,1557112
1664720,1484592,1557896
1665006,1484684,1557538
1665164,1484740,1558167
1664755,1484684,1557749
1664755,1484708,1558474
1664318,1484655,1557642
1664318,1484557,1558219
1664432,1484702,1557824
1664417,1484636,1557127
1664265,1484413,1556156
1664247,1484391,1554552
1664347,1484915,1552251
1664436,1485107,1550181
1664457,1485423,1548722
1664634,1485792,1544017
1664626,1485874,1540514
1664777,1485853,1539370
1664929,1486181,1537013
1665187,1486145,1534117
1665497,1486538,1532398
1665714,1486778,1531720
1665893,1486871,1530207
1665996,1487027,1529753
1666007,1487617,1528393
1666234,1487819,1527921
1666390,1487925,1526790
1666256,1488384,1526830
1666256,1488741,1526891
1666272,1488823,1526298
1666741,1488902,1525357
1667026,1489410,1526577
1667115,1489633,1526382
1667133,1489488,1526774
1667726,1489847,1527465
1667931,1490342,1528651
1667917,1490637,1528946
1668193,1490850,1530323
1668265,1491122,1529727
1668354,1490892,1530303
1668496,1491339,1530405
1668729,1491426,1530690
1668927,1491662,1531662
1669116,1492452,1531725
1669464,1492441,1532056
1669643,1492565,1531790
1669707,1492900,1531435
1670030,1493074,1530535
1670321,1493562,1530431
1670293,1493972,1530553
1670297,1494195,1529741
1670297,1494204,1530015
1670479,1494276,1531427
1670664,1494939,1531117
1670782,1494626,1531761
1670728,1494170,1532110
1670915,1493990,1532069
1670320,1492700,1532673
1669811,1492363,1532856
1669327,1491444,1533350
1668515,1490950,1534163
1667786,1489815,1533847
1667064,1488537,1534654
1666316,1488113,1534776
1665435,1487544,1536257
1665341,1487090,1537215
1664685,1486641,1537940
1664049,1486443,1538431
1663782,1486335,1539133
1663396,1486266,1539327
1663120,1486652,1539585
1663113,1486980,1541194
1662682,1486977,1541058
1662682,1487043,1541175
1662760,1487411,1540869
1662588,1487407,1541912
1662793,1487674,1541797
1662816,1487873,1543890
1663041,1488001,1543642
1663502,1488847,1543746
1663812,1488924,1544131
1663931,1489172,1544061
1664221,1489137,1544720
1664617,1488930,1546238
1664760,1488490,1546258
1664638,1488218,1547163
1664950,1488105,1548205
1665236,1487759,1548266
1665407,1487386,1549006
1665333,1487170,1549834
1665400,1486622,1550323
1665222,1486592,1550393
1665066,1486497,1551284
1664965,1486499,1552049
1664854,1486546,1553432
1664854,1486610,1553523
1664807,1486287,1553501
1664834,1486382,1554106
1664971,1486434,1554891
1664876,1487063,1555744
1664996,1486632,1555610
1665476,1486926,1555932
1665410,1487294,1555963
1665474,1487571,1556339
1665709,1487731,1557010
1665782,1487799,1557516
1665890,1488088,1558733
1665908,1488098,1559489
1666232,1488456,1560400
1666437,1488630,1561304
1666874,1489169,1562045
1666804,1489428,1562401
1667147,1489375,1562703
1667429,1489593,1563090
1667762,1490127,1563006
1667694,1490412,1563885
1667974,1490850,1564253
1667974,1490634,1564548
1667719,1490933,1564642
1668003,1491043,1564659
1668119,1491830,1563820
1668526,1491805,1563064
1668805,1491597,1562337
1668708,1491859,1561591
1669213,1492181,1559898
1669230,1493174,1558697
1669527,1493288,1557120
1669535,1493793,1554050
1669924,1493589,1552010
1670061,1493610,1551276
1670210,1493720,1549744
1670562,1494507,1548719
1670859,1494459,1548073
1671052,1494792,1547678
1671088,1494707,1547443
1671386,1495033,1548202
1671441,1495411,1547712
1671782,1495736,1548320
1671899,1496194,1548027
1671711,1496491,1549020
1671711,1496606,1548819
1671881,1496883,1549010
1672234,1496686,1549506
1672524,1497066,1549780
1672408,1496783,1550650
1672586,1496838,1551523
1672682,1496252,1551629
1672356,1495821,1552091
1672063,1495245,1553072
1671347,1494311,1552980
1670814,1493146,1552604
1669800,1491896,1552366
1668759,1490913,1552210
1668054,1489817,1553431
1667625,1489321,1554060
1666918,1488296,1554072
1666221,1487994,1555133
1665678,1487369,1555137
1665002,1487154,1555652
1664711,1486906,1555953
1664107,1486811,1555802
1663743,1486908,1556132
1663743,1486996,1555964
1663512,1487018,1556183
1663672,1487381,1557117
1663554,1487449,1558303
1663441,1487598,1558324
1663508,1487387,1558731
1663948,1487971,1559802
1663994,1488554,1558795
1664023,1488478,1559414
1664259,1488935,1562084
1664301,1489187,1560459
1664491,1489205,1560459
1664487,1489005,1559826
1664750,1489563,1561596
1664789,1489249,1559875
1665312,1489522,1559401
1665316,1489340,1558930
1665335,1489514,1558333
1665157,1489153,1558008
1665325,1489579,1558292
1665410,1489259,1556942
1665314,1489607,1557458
1664884,1489450,1556183
1664884,1489425,1555805
1664918,1489615,1555335
1665012,1489525,1554974
1665076,1489533,1555701
1665188,1489040,1555191
1665316,1488631,1554666
1665414,1488900,1556579
1665711,1488607,1557940
1665572,1488783,1560375
1665788,1489084,1561338
1665974,1489201,1561762
1665794,1488948,1562198
1665927,1489275,1562843
1666047,1489578,1563036
1666124,1489749,1563331
1666688,1490240,1563611
1666649,1490688,1564711
1666752,1490888,1564743
1666708,1490875,1565608
1667296,1491364,1565666
1667668,1491392,1566259
1667592,1492019,1565519
1667592,1491982,1566158
1667358,1492190,1566823
1667781,1492531,1566861
1667845,1492898,1566004
1667898,1493081,1566672
1668167,1493202,1566196
1668319,1492991,1566297
1668969,1493839,1566830
1669034,1494141,1567482
1669173,1494241,1568333
1669466,1494684,1568660
1669654,1494746,1568193
1669630,1494745,1568598
1669596,1495175,1569076
1669910,1495451,1569613
1670171,1495702,1570491
1670355,1495910,1570590
1670508,1496065,1570026
1670665,1496227,1570298
1670769,1496741,1569650
1670981,1496925,1568792
1671106,1497660,1567387
1671195,1497785,1566495
1671195,1497922,1564424
1671294,1498082,1562172
1671577,1498300,1560356
1671633,1498588,1558046
1671677,1498390,1555946
1671560,1497815,1554032
1671543,1496860,1552097
1671143,1496774,1550722
1670471,1495706,1548271
1669808,1494864,1547174
1669132,1493815,1547614
1668112,1492702,1546355
1667190,1492069,1546891
1666587,1491174,1545875
1666170,1490819,1546218
1665654,1490241,1546381
1665091,1489595,1546571
1664456,1489437,1547017
1664178,1489130,1547654
1663971,1489372,1547263
1663665,1489925,1548291
1663204,1489938,1548798
1663204,1489885,1549367
1663300,1490157,1549741
1663002,1490530,1550728
1663226,1490837,1551186
1663301,1490640,1551574
1663481,1490831,1550756
1663624,1491561,1550869
1663785,1492115,1550820
1664016,1492457,1550218
1664202,1492574,1550370
1663949,1492669,1550641
1664076,1492667,1549824
1664155,1493025,1549951
1664369,1493047,1550289
1664591,1493052,1550008
1664876,1493315,1550091
1664877,1493319,1549846
1664957,1492795,1549667
1664848,1493043,1549937
1664680,1493195,1551039
1664785,1493260,1551446
1664323,1493543,1552576
1664194,1493449,1552571
1664194,1493640,1552961
1664257,1493661,1553569
1664432,1493828,1554494
1664626,1493920,1554261
1664357,1493702,1555209
1664382,1494301,1556852
1664771,1494679,1557678
1664707,1494547,1558277
1664792,1495337,1559568
1664996,1495530,1560203
1665115,1495611,1560132
1665231,1495609,1559809
1665582,1496263,1560431
1665754,1496327,1560997
1665821,1496877,1561925
1666348,1497058,1562406
1666420,1497263,1562654
1666777,1497277,1563943
1666588,1497593,1565058
1666965,1497918,1566475
1666696,1498554,1566960
1666795,1498621,1566885
1666795,1498750,1567082
1667136,1498707,1567153
1667495,1499168,1567938
1667457,1499392,1567600
1667560,1499294,1568027
1667833,1499337,1567738
1668474,1499487,1567746
1668571,1500216,1567850
1668771,1500480,1567176
1668962,1500668,1566736
1668962,1500651,1567805
1668852,1500687,1568032
1669255,1500928,1568624
1669754,1501291,1569028
1670041,1501722,1569020
1670143,1501870,1569614
1670078,1501934,1568978
1670552,1502247,1569120
1670362,1502372,1569627
1670524,1502989,1570140
1670717,1503338,1570510
1670664,1503615,1570306
1670664,1503443,1570221
1670946,1503903,1570792
1671158,1503972,1571007
1671325,1504171,1571228
1671608,1504173,1571053
1671746,1503995,1570935
1671656,1503635,1570816
1671346,1503486,1570459
1671167,1502845,1570717
1670771,1502151,1570481
1670323,1501166,1570992
1669583,1499899,1570054
1668772,1499177,1569620
1667922,1498479,1568973
1667405,1497758,1567790
1667017,1497419,1566190
1666534,1497110,1565127
1665868,1496410,1562349
1665480,1496289,1559495
1665273,1496261,1556634
1664650,1496410,1555333
1664472,1496663,1551250
1664472,1496952,1549340
1664134,1496819,1546784
1664051,1497010,1545177
1664177,1497092,1545435
1664167,1497667,1544361
1664102,1497363,1543597
1664287,1497573,1543258
1664651,1498293,1543033
1664825,1498733,1544027
1664957,1499097,1544579
1665060,1499215,1545210
1665230,1499037,1546187
1665291,1498616,1546703
1665148,1499227,1546574
1665488,1499021,1547237
1665621,1499211,1548316
1665738,1499198,1548299
1665538,1498988,1549204
1665060,1498802,1550520
1665342,1498702,1551871
1665553,1498594,1551796
1665498,1499010,1552527
1665103,1498914,1551963
1665103,1499033,1551626
1665136,1498617,1551601
1664869,1498710,1552273
1665015,1499020,1551404
1664957,1499143,1551693
1665022,1498685,1551292
1665434,1499115,1551267
1665393,1499474,1551551
1665538,1499441,1551928
1665702,1499613,1552074
1665914,1499525,1551529
1665915,1499674,1551796
1665822,1499549,1551817
1666207,1500018,1555487
1666162,1499853,1553060
1666894,1500197,1552717
1666959,1500140,1552203
1666977,1500342,1555815
1667078,1500230,1553610
1667517,1500761,1553891
1667439,1500777,1554865
1667601,1501029,1557087
1667294,1501036,1555870
1667294,1501280,1556596
1667599,1501290,1556727
1667833,1501518,1555984
1668081,1501439,1557130
1668134,1501357,1557109
1668120,1501456,1558323
1668582,1501736,1558896
1668883,1502199,1559908
1669209,1502493,1560726
1669339,1502725,1561946
1669661,1502517,1562673
1669712,1502344,1563341
1669662,1502558,1564670
1669992,1502652,1565628
1670472,1502599,1567060
1670628,1502958,1567926
1670672,1502867,1567925
1671077,1502837,1569275
1671122,1502910,1569984
1671178,1503089,1570996
1671423,1503420,1571628
1671343,1503589,1571879
1671279,1503449,1572574
1671279,1503415,1575169
1671839,1503705,1575733
1671753,1503784,1577314
1671916,1503276,1577518
1671979,1502687,1578218
1671335,1501620,1579255
1670847,1500533,1579847
1670358,1499855,1581494
1669589,1499250,1582431
1668755,1498314,1582382
1667917,1497286,1583130
1667133,1496586,1583473
1666403,1495974,1583829
1666181,1495799,1584503
1666082,1495586,1584662
1665697,1495136,1585100
1665307,1494794,1585914
1664928,1494649,1586758
1664710,1494671,1587250
1664670,1494921,1588291
1664417,1495193,1588602
1664271,1495180,1588913
1664271,1495294,1588592
1664272,1495585,1590612
1664329,1495799,1590016
1664382,1495895,1590485
1664582,1495754,1589823
1664757,1495839,1591299
1664816,1496318,1591020
1664904,1496535,1590983
1665046,1496614,1591819
1665134,1496751,1591372
1665553,1496630,1591846
1665244,1496274,1591127
1665134,1496407,1590645
1665223,1496335,1588992
1665436,1496208,1588359
1665444,1496244,1585825
1665492,1495779,1584088
1665545,1495636,1582311
1665336,1495665,1580287
1665388,1495720,1578354
1665531,1496008,1576067
1664816,1496082,1574141
1664816,1495833,1573002
1664650,1496206,1571209
1664736,1496037,1570708
1664912,1496333,1569538
1664876,1496221,1569073
1665093,1496194,1568365
1665272,1496183,1568003
1665341,1496548,1567916
1665514,1496759,1568195
1665568,1496922,1568548
1665622,1496915,1568192
1665643,1497100,1568884
1665651,1497007,1568872
1665823,1497128,1570129
1666022,1497373,1570824
1666490,1497596,1571243
1666616,1497825,1570798
1666556,1497658,1571643
1666588,1497765,1571419
1666963,1498033,1572423
1667150,1498454,1573231
1666923,1498707,1572976
1666669,1498703,1573803
1666703,1498894,1573664
1666703,1498800,1574267
1666969,1499209,1575364
1667190,1499269,1574741
1667323,1499091,1574930
1667376,1499211,1575708
1667676,1499736,1576442
1667831,1500012,1575960
1668149,1500108,1576269
1668353,1500530,1577032
1668389,1500356,1576882
1668295,1500388,1578174
1668543,1500568,1578630
1668892,1500828,1579153
1668797,1500914,1579461
1669410,1500906,1580060
1669173,1501212,1580193
1669357,1501336,1580994
1669496,1501355,1581600
1669486,1501770,1582286
1669338,1501875,1582266
1669397,1501739,1583212
1669397,1501383,1584225
1669148,1500934,1585187
1668852,1500213,1585442
1668558,1499736,1585655
1668168,1499048,1585972
1667198,1497688,1586937
1665006,1496386,1587857
1664214,1495967,1587968
1663402,1495159,1588187
1662711,1494633,1588587
1662198,1494226,1589145
1661829,1493615,1589442
1661178,1493199,1590619
1660965,1493342,1590467
1660797,1493226,1590790
1660871,1493457,1591614
1660764,1493216,1591748
1660490,1493440,1592149
1660308,1493355,1592740
1660173,1493853,1593376
1660217,1493750,1593549
1660243,1494233,1593535
1660056,1494410,1593726
1660056,1494590,1594734
1660041,1494649,1594651
1660153,1495073,1594684
1660165,1495340,1595614
1660294,1495105,1596754
1660287,1495176,1597183
1660285,1495397,1598332
1660299,1495611,1600449
1660352,1495541,1599602
1660422,1495742,1601100
1660446,1495478,1602597
1660147,1495298,1604342
1660050,1495131,1605390
1660219,1495069,1606378
1660308,1495161,1607016
1660288,1495313,1608111
1660118,1494936,1608311
1659954,1494992,1609177
1660261,1495226,1610446
1660090,1495736,1610505
1660097,1495878,1611221
1659767,1496060,1610829
1659767,1495820,1610946
1659811,1496120,1611257
1659853,1496317,1611058
1659950,1496385,1610921
1660324,1496817,1611609
1660285,1496718,1611599
1660622,1497063,1613513
1660715,1497298,1614327
1660842,1497605,1613929
1661066,1497788,1613781
1661101,1497854,1612829
1661064,1497872,1612135
1661144,1498208,1610968
1661378,1498096,1609722
1661425,1498280,1608017
1661870,1498515,1606035
1662046,1498897,1604151
1662060,1498910,1602162
1662265,1499199,1600811
1662346,1499350,1598990
1662682,1499858,1597508
1662527,1499804,1596251
1662424,1500121,1595230
1662424,1500295,1595261
1662603,1500294,1594993
1662977,1500580,1594389
1663119,1500859,1594160
1663205,1500320,1594003
1663264,1500455,1593525
1663423,1501034,1593265
1663549,1501490,1591761
1663865,1501805,1592033
1664000,1501875,1591724
1664316,1501904,1592810
1664248,1501469,1592649
1664404,1501962,1593853
1664631,1501848,1594139
1664825,1501905,1594669
1664695,1501612,1594598
1664650,1501234,1594909
1664360,1500405,1594932
1663971,1500059,1595644
1663381,1499222,1595628
1662640,1498681,1596207
1661630,1497620,1595823
1661630,1496796,1595433
1660838,1495281,1595286
1660380,1495396,1597958
1659816,1494942,1595604
1659093,1494561,1595439
1658729,1493665,1595744
1658142,1493971,1595383
1657352,1493634,1595107
1657278,1493638,1596344
1657196,1493788,1595829
1657025,1493414,1595693
1657080,1493381,1596322
1657010,1493251,1596016
1657034,1493723,1597525
1657048,1493669,1596927
1657473,1493997,1596472
1657419,1494253,1596320
1657743,1494307,1597432
1657649,1494252,1596510
1657659,1494886,1597329
1657630,1494903,1597062
1657713,1495284,1597273
1657713,1495123,1597365
1657681,1495410,1597787
1658028,1495130,1598162
1657866,1495367,1597873
1658199,1495116,1596959
1658300,1494847,1597980
1658089,1495074,1598264
1657683,1495141,1597755
1657780,1495252,1597461
1657590,1495314,1597605
1657905,1495291,1597310
1657703,1494979,1596437
1657787,1495268,1596725
1657655,1495427,1595754
1657959,1495484,1595153
1658182,1495414,1594650
1658341,1495990,1594608
1658191,1496121,1593615
1658676,1496216,1593418
1658736,1496635,1593641
1658565,1496713,1595346
1658628,1496894,1594278
1658700,1497520,1593770
1658700,1497456,1594190
1658813,1497619,1594662
1659000,1497939,1595532
1659080,1498105,1596376
1659283,1498243,1596708
1659427,1498248,1597280
1659775,1498702,1597376
1659922,1498833,1598489
1660300,1499011,1599219
1660430,1499259,1599304
1660518,1499611,1599206
1660661,1499414,1599372
1660759,1499828,1599085
1660935,1499799,1599264
1661277,1500067,1600156
1661467,1500439,1599756
1661708,1500518,1599356
1661915,1500595,1599668
1661971,1500847,1599307
1661840,1501119,1599056
1662460,1501605,1597762
1662287,1501881,1596190
1662189,1501885,1594821
1662189,1501916,1593072
1662341,1502087,1591300
1662724,1502506,1589249
1662888,1502405,1587068
1663014,1502389,1584750
1663059,1502888,1583665
1663508,1503230,1580158
1663626,1503481,1578205
1663810,1503629,1577687
1663985,1504029,1576393
1664132,1504042,1575474
1664049,1503908,1574754
1664466,1504137,1574120
1664408,1503988,1573277
1664651,1503390,1573199
1664256,1503046,1572636
1663946,1502289,1573105
1663518,1501546,1573901
1662903,1500701,1574145
1662333,1500173,1574801
1661402,1499504,1574934
1660426,1498743,1574306
1660426,1498208,1574679
1660069,1497561,1575888
1659250,1497189,1576217
1659008,1496955,1576491
1658449,1496673,1576500
1657995,1496502,1576782
1657507,1496434,1577823
1657318,1496640,1577608
1657277,1496625,1576741
1657353,1496786,1576623
1657444,1496925,1575797
1657289,1496610,1575574
1657200,1496924,1575636
1657189,1497144,1575411
1657643,1497730,1574722
1657959,1497777,1574723
1657924,1498029,1573889
1658099,1497918,1573291
1658144,1497854,1574119
1658344,1498294,1574222
1658576,1498544,1574258
1658314,1498728,1574184
1658314,1498577,1573893
1658280,1498471,1573964
1658317,1498324,1573887
1658273,1498273,1573542
1658600,1498184,1573050
1658317,1497918,1573428
1658529,1497916,1573516
1658363,1498198,1573961
1658138,1498026,1574056
1658406,1497942,1574178
1658494,1498265,1574249
1658369,1498475,1574032
1658253,1497941,1574392
1658677,1498232,1575366
1658774,1498377,1575143
1659087,1498571,1575490
1659127,1498633,1575861
1659012,1498943,1575899
1659086,1498935,1575529
1659558,1499187,1575605
1659640,1499513,1575867
1659467,1500063,1576217
1659365,1500235,1575917
1659365,1500094,1575517
1659524,1500222,1576000
1659906,1500641,1575974
1660114,1501028,1574890
1660176,1500559,1574661
1660335,1500632,1574367
1660768,1501058,1574934
1660813,1501776,1575304
1660940,1501987,1575005
1661050,1502239,1575427
1661227,1501931,1575604
1661081,1502149,1576328
1661239,1502404,1576313
1661450,1502570,1577038
1662060,1502862,1577490
1662060,1502971,1577848
1662266,1503040,1578086
1662280,1502973,1578384
1662674,1503272,1579410
1662859,1503428,1580365
1662647,1503879,1580539
1662621,1504174,1580778
1662621,1504312,1581983
1662771,1504369,1581787
1662970,1504445,1582813
1662767,1504473,1582172
1663248,1504462,1582022
1663434,1504394,1581906
1663965,1504918,1582749
1664028,1504969,1583372
1664247,1505444,1583611
1664387,1505313,1582738
1664605,1505455,1581570
1664584,1504946,1579636
1664454,1504720,1578035
1664363,1504350,1575597
1664415,1503645,1573900
1664060,1502808,1571758
1663593,1501799,1569935
1663135,1500845,1567628
1662058,1500081,1565465
1661560,1499043,1564265
1660729,1498855,1563577
1659808,1497599,1563176
1659808,1497119,1561656
1659091,1496692,1561657
1658687,1496466,1561930
1658270,1496607,1562820
1657892,1495996,1562305
1657623,1495808,1562201
1657108,1495872,1562995
1657023,1496348,1563513
1657211,1496274,1564128
1657271,1496677,1564855
1657325,1496556,1565252
1657220,1496603,1565950
1657228,1496787,1567379
1657571,1497156,1569126
1657774,1497279,1569786
1658275,1497752,1570306
1658295,1497578,1571266
1658265,1497732,1571184
1658302,1497742,1572747
1658607,1498036,1573184
1658397,1497822,1573890
1658247,1498213,1574088
1658186,1498027,1573319
1658186,1497893,1572904
1657896,1497414,1572777
1658036,1497648,1572595
1658201,1497606,1572036
1658117,1497580,1571193
1658007,1496975,1570980
1657991,1497252,1571212
1658062,1497074,1571411
1657946,1497072,1571238
1658176,1497651,1571127
1658163,1497514,1570535
1658148,1497605,1571330
1658096,1497575,1570944
1658474,1497916,1571708
1658602,1497854,1571341
1659040,1498117,1571632
1659046,1498204,1571633
1658925,1498125,1574207
1658768,1498375,1572144
1659264,1498708,1572283
1659567,1498812,1572423
1659495,1499510,1575404
1659495,1499235,1573864
1659519,1499529,1574019
1659579,1499597,1574494
1659761,1499600,1575353
1660010,1499607,1574595
1660256,1499658,1574977
1660288,1499794,1574886
1660561,1499999,1575542
1660592,1500629,1576373
1660753,1500603,1576464
1661104,1500917,1575506
1661299,1500652,1575563
1661329,1500859,1576316
1661330,1501088,1575796
1661699,1501293,1576245
1661906,1501617,1575512
1662423,1501722,1575836
1662362,1501625,1575521
1662763,1501668,1576104
1662753,1502054,1576003
1663161,1502304,1577090
1663357,1502566,1576792
1662972,1502762,1577223
1662972,1502541,1577240
1663296,1502890,1577824
1663596,1502921,1578103
1663549,1503346,1578086
1663972,1503181,1578516
1664180,1503161,1579535
1664450,1503572,1579990
1664520,1503943,1580730
1664717,1503876,1580711
1664790,1504394,1581405
1665064,1504562,1580783
1665267,1504468,1581064
1665327,1504455,1581333
1665477,1504715,1580687
1665779,1504882,1581280
1666228,1505058,1581340
1666226,1504929,1581247
1665839,1504663,1581988
1665867,1504039,1582438
1665628,1503716,1582659
1665535,1503172,1583159
1664989,1502512,1583442
1664118,1501722,1583369
1664118,1500578,1582326
1663384,1499509,1582753
1662645,1498559,1580713
1661854,1497581,1580035
1661044,1496455,1577632
1660249,1495593,1576018
1659558,1495336,1573544
1657709,1494178,1569399
1657243,1493985,1567038
1657040,1494112,1563254
1656691,1494027,1561935
1656265,1493614,1561308
1655913,1493708,1560038
1655958,1493712,1559449
1656024,1493949,1557912
1656453,1494022,1557700
1656347,1494423,1557618
1656364,1494260,1558159
1656268,1494372,1558409
1656211,1494851,1559715
1656316,1495344,1560270
1656162,1495574,1561261
1656162,1495537,1562099
1656158,1495913,1562767
1656363,1495759,1564054
1656471,1495864,1564480
1656505,1496024,1565133
1656458,1496067,1566183
1656539,1495703,1567245
1656363,1496111,1568130
1656521,1496075,1567982
1656474,1495788,1568261
1656313,1496145,1568083
1656377,1495519,1568158
1656224,1495405,1567986
1656410,1495702,1568122
1656296,1495822,1568081
1656716,1496077,1568156
1656601,1496188,1567998
1656753,1496096,1568316
1656735,1496384,1568761
1657230,1496710,1568398
1657233,1496879,1568918
1657088,1497309,1568586
1657180,1497274,1568769
1657180,1497563,1568926
1657381,1497705,1568934
1657590,1498011,1569027
1657649,1497962,1568904
1657646,1497990,1569421
1657904,1498204,1569636
1658622,1498781,1569879
1658780,1498988,1570354
1658784,1499302,1570058
1659021,1499616,1570830
1659342,1499743,1571219
1659250,1499723,1571875
1659342,1499870,1572112
1659902,1500174,1572777
1660375,1500575,1573372
1660580,1500808,1573604
1660417,1500749,1573810
1660654,1501012,1573608
1660925,1501370,1574383
1661161,1501478,1574506
1661375,1502084,1574890
1661174,1502463,1574954
1661174,1502464,1575448
1661404,1502523,1574971
1661805,1502734,1575878
1661983,1503310,1575692
1662156,1503055,1575771
1662431,1503125,1576325
1662945,1503508,1575488
1663060,1504008,1576069
1663502,1503979,1576069
1663593,1504347,1576081
1663866,1504452,1576789
1663965,1504438,1576619
1663994,1504397,1577453
1664124,1504567,1577429
1664429,1504951,1577616
1664988,1504985,1577642
1665212,1505369,1578552
1665186,1505466,1578690
1665380,1505643,1579511
1665627,1505972,1579653
1665823,1506188,1580635
1665738,1506750,1580999
1665905,1506460,1581465
1665905,1506513,1582251
1666228,1506698,1583209
1666469,1507311,1583098
1666759,1507229,1583010
1666953,1507359,1583537
1667135,1507156,1583636
1667878,1507616,1584187
1667976,1507877,1584682
1668165,1508130,1585888
1668331,1508432,1585708
1668522,1508260,1585713
1668864,1508024,1586729
1669331,1508271,1586390
1669692,1508290,1586918
1670131,1508380,1587099
1670385,1508284,1587110
1670487,1508319,1587588
1670725,1508427,1588196
1670797,1508516,1587914
1671004,1508692,1587431
1670906,1508672,1586931
1670619,1508103,1584989
1670619,1507882,1583543
1670636,1507094,1581554
1670424,1506390,1580152
1670444,1505671,1577436
1669624,1504479,1574734
1669152,1503766,1572244
1668239,1503076,1571071
1666502,1501637,1569099
1665738,1501355,1565277
1665207,1500988,1563718
1664837,1500508,1563574
1664195,1500179,1562779
1663695,1499985,1562574
1663769,1499958,1562606
1663823,1500369,1563210
1663808,1500171,1563704
1663621,1500050,1564044
1663781,1499948,1564012
1663533,1500474,1564684
1663494,1500217,1565733
1663441,1500879,1566085
1663042,1500907,1566263
1663042,1501027,1567124
1663197,1501067,1566937
1663580,1501368,1568070
1663484,1501488,1569044
1663795,1501636,1568313
1663816,1501501,1568967
1663835,1501749,1569736
1663859,1502142,1569672
1663881,1501868,1570461
1664167,1501863,1569828
1664198,1501657,1569767
1663956,1501727,1570200
1663806,1501337,1569598
1663862,1501732,1571912
1663870,1501630,1570255
1664182,1501710,1570205
1663923,1501683,1569985
1663908,1501722,1572385
1663952,1501477,1570155
1663840,1502075,1570274
1664161,1502146,1570035
1664096,1502372,1572446
1664096,1502563,1570272
1664001,1502406,1570893
1664073,1502245,1571125
1663974,1502964,1571821
1664296,1502830,1570724
1664241,1502719,1571508
1664178,1502925,1571749
1664890,1503014,1572626
1665048,1503371,1572958
1665154,1503970,1572966
1665162,1504073,1573664
1665066,1503762,1573471
1665290,1503854,1573680
1665497,1503810,1574009
1665964,1504192,1574513
1666204,1504388,1574532
1666408,1504597,1574777
1666358,1504425,1574582
1666339,1504817,1575851
1666687,1504949,1575688
1667060,1505424,1576409
1667000,1505757,1576906
1667000,1505729,1578131
1666882,1505522,1577587
1666902,1505931,1578320
1667093,1506226,1578239
1667292,1506383,1579943
1667716,1506053,1579364
1667829,1506300,1580279
1667938,1506770,1579433
1668104,1506697,1580699
1668588,1506896,1580234
1668665,1506948,1580508
1668820,1506727,1580641
1668843,1506644,1580358
1669145,1507058,1580936
1668718,1507114,1582025
1669659,1507275,1582829
1669903,1507267,1583107
1670178,1507418,1583516
1670085,1507649,1584339
1670588,1507861,1584415
1670362,1508208,1584743
1670569,1508630,1585358
1670569,1508347,1585551
1670595,1508788,1586255
1670706,1508474,1586234
1671097,1508591,1587309
1671387,1508322,1587728
1671234,1508276,1588357
1671352,1508296,1589026
1671502,1507976,1590351
1671432,1508134,1589260
1671266,1507555,1590502
1670920,1507104,1591389
1670497,1506210,1591801
1669949,1505496,1591253
1669566,1504811,1592137
1668984,1504088,1592455
1668588,1503481,1593328
1668101,1502918,1593074
1667319,1502326,1592125
1666879,1502024,1591977
1666333,1502046,1591595
1666118,1501951,1589248
1665686,1502032,1588721
1665139,1502182,1587320
1665065,1501996,1584392
1665065,1501816,1582122
1665190,1501965,1579980
1665043,1502467,1579345
1665028,1501954,1576107
1664942,1501987,1574954
1664873,1502303,1573682
1665399,1502281,1572610
1665513,1502464,1571241
1665642,1502749,1570818
1665826,1502697,1571269
1665558,1502304,1571411
1665577,1502619,1570973
1665853,1502684,1571408
1666006,1502529,1571772
1666263,1502377,1572316
1666389,1502099,1572166
1666300,1501556,1572819
1666378,1501733,1573723
1666419,1501619,1574043
1666711,1501061,1575654
1666364,1500878,1575691
1666364,1500585,1575903
1666173,1500548,1576408
1666311,1499921,1577651
1666206,1500121,1577771
1666114,1499714,1578258
1666529,1499164,1577688
1666189,1499032,1578087
1666457,1498856,1577776
1666510,1498731,1577698
1666431,1498766,1577599
1666856,1498752,1577764
1667091,1498512,1578045
1667150,1498107,1577504
1667448,1498254,1578100
1667562,1498097,1578551
1667911,1498238,1578461
1668068,1497842,1578751
1668253,1497988,1578159
1668198,1497604,1578527
1668428,1497544,1578910
1668545,1497502,1579575
1668764,1497524,1579121
1668468,1496867,1580189
1668468,1496795,1579829
1668827,1496586,1580502
1669120,1496773,1580945
1669370,1496593,1581801
1669528,1496181,1580991
1669559,1495907,1581723
1670198,1495900,1582937
1670308,1495830,1583077
1670510,1495795,1584107
1670822,1495898,1584957
1670943,1495652,1584965
1670739,1495343,1584649
1671071,1495171,1585111
1671182,1494936,1586015
1671586,1495091,1585839
1672040,1494818,1587404
1671924,1494746,1588219
1671991,1494659,1588109
1671988,1494492,1588366
1672445,1494543,1588378
1672575,1494817,1588446
1672446,1494628,1589333
1672446,1494736,1589647
1672625,1494534,1589364
1672849,1494667,1589719
1673116,1494467,1590100
1673235,1494197,1590681
1673112,1493890,1590592
1673861,1493790,1590372
1673820,1493840,1590786
1674136,1493477,1590843
1674292,1492946,1591570
1674369,1492238,1592057
1674108,1491122,1592852
1673779,1490192,1592495
1673605,1489437,1593224
1672825,1488362,1593128
1672999,1487428,1593476
1672456,1486029,1594406
1672264,1484643,1594413
1671682,1483194,1594452
1670929,1482236,1595071
1670517,1481395,1594872
1669951,1480613,1596163
1669951,1479807,1596112
1669707,1479018,1596066
1669461,1478050,1596140
1669278,1477226,1596130
1669262,1476086,1596182
1669382,1474839,1595941
1669310,1473349,1594085
1669446,1472994,1592415
1669524,1472594,1590289
1669378,1471713,1589134
1669605,1471186,1585059
1669507,1470519,1583428
1669601,1470297,1580558
1669750,1469960,1578410
1669951,1469550,1577193
1670505,1469327,1575405
1670394,1468991,1573582
1670369,1468628,1572838
1670282,1468548,1571598
1670377,1468482,1571303
1670351,1468390,1571276
1670165,1468272,1570762
1670165,1468083,1570497
1669794,1467528,1571334
1669640,1467434,1570874
1669493,1467036,1571366
1669464,1466833,1572124
1669622,1466311,1572426
1669523,1465782,1572384
1669317,1466070,1572880
1669277,1465686,1573967
1669484,1465681,1574429
1669349,1465266,1575525
1669460,1464867,1575657
1669299,1464636,1576875
1669563,1464720,1575994
1669595,1464210,1577323
1670233,1464104,1577571
1670574,1463564,1576817
1670737,1463162,1577676
1670956,1462821,1577016
1670942,1462597,1577380
1671162,1462305,1576627
1671181,1461992,1576973
1670875,1461878,1577079
1670875,1462024,1577479
1671242,1461352,1577132
1671465,1461458,1577779
1671598,1461224,1577957
1671761,1460740,1579056
1671830,1460316,1579371
1671985,1460312,1579801
1672250,1460701,1580110
1672139,1460368,1581127
1672404,1460452,1581631
1672584,1460047,1582173
1672648,1460119,1583307
1672509,1460154,1583733
1672719,1460312,1584257
1673229,1460261,1585044
1673321,1460357,1588147
1673477,1460008,1586105
1673704,1460015,1586973
1673634,1459931,1586390
1674013,1460056,1587123
1673755,1460543,1587731
1673679,1460676,1588796
1673679,1460666,1589335
1673785,1460884,1589242
1673770,1460666,1589242
1674108,1460855,1590107
1674013,1460643,1590325
1674230,1460781,1591273
1674420,1461074,1591130
1674616,1461346,1591014
1675049,1461084,1591656
1675116,1461091,1592977
1675257,1461005,1593827
1675393,1460647,1593677
1675587,1460990,1593835
1675512,1460571,1594024
1675835,1460640,1595031
1676095,1459686,1594929
1676173,1459584,1595210
1676108,1458937,1595177
1675780,1458440,1596149
1675329,1457882,1596423
1674728,1457607,1596490
1673868,1456525,1596667
1673868,1456189,1598338
1673330,1455374,1598372
1672851,1454559,1597652
1672506,1453740,1598365
1672037,1453321,1599292
1671704,1452128,1599555
1671243,1451689,1599514
1670460,1451272,1599216
1670044,1451124,1600108
1669944,1451163,1600352
1669893,1451423,1600814
1669792,1451506,1601489
1669541,1450473,1600770
1669922,1450498,1599701
1669959,1450046,1598154
1670288,1450102,1597598
1669986,1449996,1595641
1669932,1450176,1594212
1670059,1450176,1592185
1670107,1450552,1589624
1670320,1450502,1586275
1670017,1450969,1585013
1669853,1450556,1583602
1669853,1450798,1581075
1669776,1450684,1579432
1669995,1450404,1578618
1670206,1450120,1577879
1670110,1449653,1577434
1670167,1449327,1576971
1670172,1448814,1576322
1670133,1448754,1576530
1670259,1448600,1577422
1670440,1448177,1577758
1670322,1447758,1578545
1670414,1447399,1579945
1670004,1447051,1579792
1670417,1447131,1582038
1670688,1446960,1582329
1670975,1446928,1582743
1670946,1447004,1584109
1671309,1446976,1584481
1671084,1446765,1585102
1671160,1446892,1585724
1670809,1446781,1586416
1670563,1447218,1588683
1670563,1447313,1589448
1670648,1447142,1588810
1671021,1447067,1589701
1671089,1447166,1589552
1671229,1447005,1590092
1671155,1447070,1589855
1671218,1447635,1589399
1671267,1448040,1589726
1671203,1448287,1590169
1671394,1448441,1590694
1671453,1448864,1591243
1671363,1448710,1591069
1671559,1448891,1591685
1671605,1449292,1591990
1671628,1449544,1592674
1672232,1449737,1593247
1672279,1450116,1593398
1672331,1450044,1593341
1672541,1450364,1593186
1672586,1450263,1593521
1672913,1450513,1594345
1672446,1450606,1595082
1672638,1450741,1594871
1672638,1450989,1595110
1672725,1451092,1595953
1673033,1451487,1595560
1673008,1451298,1596958
1673189,1451166,1596625
1673104,1451263,1596218
1673818,1451634,1596995
1673921,1452015,1596077
1674073,1451995,1596545
1674291,1452245,1596935
1674460,1452146,1596479
1674133,1452193,1597269
1674410,1452442,1596746
1674584,1452794,1597019
1675002,1453123,1597891
1675207,1453070,1598455
1675348,1453344,1597773
1675339,1453335,1597836
1675569,1453686,1597449
1675768,1453987,1597786
1675378,1454367,1598381
1675022,1454496,1598556
1675022,1454475,1598659
1675013,1454037,1599841
1674409,1453785,1599354
1674508,1453398,1599368
1674234,1452581,1599605
1673786,1451871,1599260
1671610,1451013,1599371
1671235,1450981,1599539
1670720,1450980,1600024
1670240,1450922,1600493
1670133,1450766,1600949
1669820,1450503,1601061
1669170,1450437,1600921
1669237,1450553,1601423
1669273,1450524,1602376
1669230,1450540,1601781
1669121,1450420,1602473
1669384,1450253,1602604
1668755,1450436,1602468
1668694,1450495,1602732
1668925,1450484,1603415
1668646,1450763,1602970
1668646,1450833,1602951
1668816,1451071,1603311
1669168,1451221,1603688
1668955,1451555,1603364
1669050,1451513,1603336
1669045,1451465,1601614
1669759,1451685,1602856
1669690,1451767,1599664
1669682,1451758,1597128
1669642,1451655,1594789
1669590,1451682,1590997
1669414,1451197,1587428
1669252,1451050,1584639
1669193,1451112,1582952
1669277,1451155,1580990
1669319,1451344,1580375
1669557,1451174,1578835
1669663,1451334,1577569
1669650,1451158,1576927
1669439,1451216,1576419
1669652,1451429,1576950
1669498,1451732,1577622
1668935,1451821,1577472
1668935,1452065,1577301
1669259,1452038,1577247
1669272,1452420,1577298
1669352,1452584,1577873
1669581,1452536,1578795
1670089,1452371,1578678
1669910,1452754,1579124
1670001,1452901,1579863
1669949,1453003,1580321
1670113,1453385,1581081
1670220,1453475,1581009
1670304,1453443,1580871
1670196,1453658,1581875
1670365,1454013,1581664
1670823,1454237,1582639
1671095,1454561,1582086
1671104,1454661,1582125
1670976,1455094,1582749
1671066,1455393,1581462
1671257,1455814,1581545
1671328,1456143,1581016
1671277,1456184,1581727
1671277,1456449,1581275
1671399,1456600,1581961
1671491,1456594,1581469
1671702,1456912,1582628
1671793,1456950,1582456
1671903,1456756,1583207
1672474,1457313,1582922
1672449,1457849,1583397
1672722,1457829,1583729
1672853,1458609,1584157
1672937,1458693,1585453
1672997,1458715,1585090
1673032,1458690,1586317
1673150,1458847,1587113
1673530,1459194,1587684
1673898,1459391,1588352
1674118,1459507,1588868
1674180,1459697,1589255
1674109,1460033,1588854
1674288,1460334,1589143
1674334,1460594,1590483
1674244,1461039,1590778
1674244,1461018,1591954
1674254,1461346,1591891
1674422,1461684,1592125
1674781,1461842,1593144
1674823,1462004,1593211
1675095,1461991,1593555
1675615,1462222,1593643
1675652,1462553,1593147
1675700,1462497,1594076
1675644,1462699,1594075
1675799,1462014,1595401
1675974,1461668,1595954
1675588,1461068,1595583
1675478,1460870,1595453
1675154,1460294,1596108
1674972,1459612,1597328
1674433,1458904,1597006
1674019,1458018,1598265
1673331,1457229,1597993
1672806,1456842,1599037
1672229,1456323,1598824
1671904,1456184,1598677
1671448,1456001,1599242
1671448,1455529,1599862
1671141,1455223,1599833
1670920,1455049,1600080
1671008,1454794,1600208
1670838,1454407,1602090
1670897,1454088,1602529
1670345,1454388,1602002
1670251,1454727,1601679
1670190,1454658,1603081
1670402,1454909,1604055
1670294,1454765,1603531
1670103,1454564,1603986
1670123,1454842,1602958
1670397,1455069,1603862
1670593,1455081,1603807
1670719,1455150,1604139
1670858,1455160,1603965
1670866,1455376,1604813
1670560,1455465,1601888
1670682,1455711,1601478
1670671,1456071,1598785
1670180,1456527,1597690
1670180,1456644,1595456
1669906,1456798,1592665
1670070,1456724,1590827
1670035,1457015,1588329
1670237,1456832,1586049
1670146,1456747,1584407
1669919,1456989,1582042
1670030,1456998,1580204
1670022,1457402,1578424
1670019,1457492,1578249
1670085,1457942,1576400
1670147,1457825,1575036
1670300,1457994,1574421
1670365,1458232,1574806
1670501,1458548,1575797
1671027,1458718,1576195
1671005,1458820,1576038
1671017,1458820,1575971
1671165,1459291,1576894
1671196,1459573,1576771
1671101,1459953,1577518
1671134,1460279,1578747
1671143,1460226,1579851
1671143,1460222,1580973
1671350,1460167,1581043
1671556,1460271,1581256
1671803,1460307,1582241
1672080,1460725,1582413
1671920,1460528,1581849
1672456,1460904,1582111
1672431,1461259,1582144
1672537,1461352,1582498
1672638,1462147,1583613
1672919,1462256,1583242
1672770,1461936,1583080
1672973,1462148,1582742
1673197,1462253,1583512
1673798,1462332,1583785
1674061,1462347,1583883
1674303,1462590,1584872
1674415,1462322,1585348
1674647,1462890,1587142
1674650,1462720,1588864
1674599,1463348,1589680
1674427,1463495,1590590
1674440,1463614,1591814
1674440,1463661,1593437
1674981,1463823,1593281
1675303,1463864,1594736
1675352,1463855,1595894
1675600,1463460,1595252
1675385,1463972,1596562
1676218,1464033,1598067
1676360,1464378,1597895
1676630,1464594,1599517
1676790,1464532,1600655
1676720,1464361,1600471
1676738,1464208,1602409
1677013,1464307,1603053
1677334,1464471,1603865
1678030,1464613,1604427
1678087,1464834,1604989
1678149,1464669,1605474
1678210,1464613,1606208
1678646,1464874,1606502
1678555,1464997,1607420
1678620,1465327,1607213
1678620,1465513,1608385
1678626,1465451,1608720
1679208,1465560,1608288
1679169,1465527,1608866
1679283,1465130,1609114
1679110,1464706,1609154
1678979,1463631,1609442
1678710,1463020,1608740
1678425,1462039,1609896
1677768,1460776,1610326
1677464,1459833,1610768
1676928,1458760,1610605
1676015,1457743,1611855
1675622,1457070,1611547
1675303,1456529,1611969
1674850,1456205,1612273
1674374,1455794,1612950
1674114,1455792,1612777
1673746,1455414,1611763
1673279,1455346,1612419
1672957,1455255,1612736
1672319,1455727,1613573
1672112,1455901,1614639
1672112,1455990,1614883
1671858,1456303,1615299
1671829,1456173,1615457
1671930,1456119,1616187
1672039,1455611,1615474
1672039,1455855,1615126
1672094,1455810,1615183
1671894,1456213,1616058
1671992,1456233,1616220
1672119,1456652,1615530
1671946,1456681,1614417
1671950,1456350,1613099
1671916,1456447,1611455
1671934,1456507,1609201
1672211,1456406,1606985
1672498,1456377,1604757
1672416,1456357,1603102
1672286,1456287,1600590
1672058,1456441,1598010
1672146,1456437,1595635
1672117,1456977,1593480
1671626,1457218,1591404
1671626,1457452,1590120
1671410,1457852,1589479
1671531,1458215,1588373
1671439,1458636,1587815
1671447,1458678,1587386
1671668,1458594,1587267
1671659,1459020,1586883
1671797,1459505,1587577
1672013,1459502,1587537
1672478,1459892,1588345
1671909,1459719,1590316
1672360,1460099,1591510
1672137,1460460,1592805
1672447,1460725,1593480
1672714,1460794,1594750
1673033,1461153,1595301
1673000,1461574,1596113
1673348,1461668,1595652
1673267,1461985,1596346
1673531,1462396,1597159
1673852,1462821,1597307
1673722,1462961,1597564
1673515,1462908,1598430
1673515,1463059,1598157
1674031,1462999,1596603
1674292,1463145,1596227
1674633,1462906,1596618
1674745,1462431,1595241
1675240,1462223,1594447
1676048,1462019,1594545
1676276,1461796,1595098
1676406,1461740,1595063
1676569,1461786,1595194
1676751,1461622,1597579
1676814,1461634,1597116
1676799,1461848,1596585
1677285,1462065,1596456
1677677,1462505,1598503
1677635,1462631,1597188
1677780,1462977,1597288
1677841,1463167,1597395
1678086,1463525,1598614
1678412,1463880,1598307
1678306,1464458,1599496
1678214,1464790,1599753
1678214,1465180,1600180
1678300,1465344,1599477
1678541,1465833,1599363
1678634,1466376,1599841
1678762,1466338,1599673
1678736,1466583,1600658
1679477,1467364,1600093
1679485,1467932,1601034
1679492,1468218,1601013
1679762,1468452,1601983
1680044,1468557,1603219
1680267,1468536,1603050
1680400,1468762,1602927
1680624,1469021,1602655
1680953,1469273,1602813
1681452,1469585,1603987
1681666,1469561,1603562
1681595,1469634,1604297
1681655,1470031,1603266
1681768,1470327,1603494
1681834,1470873,1602791
1681726,1470646,1604288
1681726,1470151,1604272
1681815,1469973,1604264
1681940,1469407,1604166
1681903,1468812,1604150
1681485,1468459,1603970
1681242,1467688,1605250
1679657,1466917,1604042
1679177,1466690,1604509
1678760,1466093,1604445
1678183,1466035,1604826
1677897,1465826,1604970
1677397,1465505,1604133
1677027,1465586,1604520
1676935,1465741,1605547
1676994,1465836,1605843
1676675,1465978,1606121
1676801,1465998,1607191
1676636,1466113,1607224
1676551,1466261,1606827
1676789,1466437,1607436
1676806,1466637,1607580
1676642,1466690,1607671
1676405,1467004,1607998
1676405,1467002,1607827
1676533,1467315,1607634
1676644,1467563,1606543
1677002,1467883,1606145
1676944,1467634,1604937
1677049,1467972,1603529
1677209,1468527,1601583
1677152,1468665,1599132
1677296,1468798,1596915
1677348,1468760,1595986
1677583,1468229,1592429
1677329,1468021,1588344
1677472,1468252,1586963
1677581,1468438,1584839
1677861,1468597,1584619
1677736,1468520,1582700
1677816,1468669,1582772
1677556,1468712,1583256
1677823,1468919,1583204
1678163,1469026,1582703
1678026,1469004,1582252
1678026,1468594,1583769
1678101,1468279,1583836
1678521,1467916,1583833
1678997,1468045,1584868
1679227,1467471,1585256
1679232,1467324,1586289
1680002,1466650,1586772
1680259,1466473,1587589
1680749,1466089,1587439
1680680,1465956,1588404
1680834,1466150,1589121
1680917,1465628,1589377
1680865,1465519,1589666
1681122,1465854,1588918
1681441,1466183,1589706
1681794,1466046,1589369
1682373,1466235,1589926
1681876,1466132,1589517
1681999,1466148,1590407
1682173,1466416,1590381
1682510,1466753,1590625
1682017,1467539,1590501
1682352,1467879,1590170
1682352,1467845,1591062
1682301,1467786,1590545
1682538,1467809,1591215
1682848,1468118,1591746
1682849,1467784,1591620
1683034,1467939,1591382
1682919,1468307,1592431
1683320,1468917,1592975
1683536,1468921,1593042
1683682,1469166,1593215
1684057,1469363,1593954
1683886,1468995,1594889
1683816,1469352,1594797
1684295,1469379,1595294
1684566,1469719,1595795
1684651,1469911,1595328
1685031,1470003,1596346
1684910,1470217,1597198
1685148,1470345,1597017
1685496,1470611,1597161
1685314,1471200,1596982
1685131,1471464,1597579
1685131,1471259,1598626
1685407,1471218,1599114
1685753,1471395,1599561
1686048,1471736,1600219
1686082,1471647,1599908
1686288,1471566,1600240
1686433,1471448,1600355
1686385,1471157,1601369
1686191,1470886,1600757
1686174,1470836,1601130
1685788,1470114,1600942
1685382,1469588,1600767
1684734,1469230,1602174
1684509,1468844,1601679
1684026,1468522,1601265
1683548,1468413,1601787
1683198,1468184,1602149
1682901,1468004,1603333
1682262,1467871,1604682
1682022,1468121,1604770
1681849,1468338,1606788
1681599,1468372,1606674
1681599,1468469,1608166
1681205,1468355,1609566
1681124,1468052,1609984
1681032,1468574,1611058
1680908,1468494,1611681
1680910,1468473,1612381
1681061,1468798,1612701
1681021,1469509,1613332
1681143,1469491,1612815
1681280,1469887,1613091
1681015,1469814,1613354
1681095,1469972,1614121
1680964,1470185,1613140
1681092,1470491,1613281
1681712,1470516,1613079
1681673,1470863,1612475
1681608,1471047,1611887
1681237,1470670,1610940
1681573,1470448,1610005
1681811,1470719,1608428
1682039,1470856,1606395
1681664,1470866,1604072
1681611,1470741,1601134
1681611,1470619,1599418
1681200,1470515,1598272
1681552,1470287,1594945
1681904,1470078,1591987
1681880,1470034,1590513
1682040,1470047,1588594
1681766,1470230,1587122
1681730,1470543,1585381
1682132,1470824,1584103
1682071,1470716,1583769
1682310,1470864,1585964
1681601,1470467,1583591
1682126,1470875,1582868
1682271,1471166,1584773
1682666,1471388,1582768
1682818,1471551,1582183
1682829,1471684,1582377
1682881,1471710,1583765
1682940,1472275,1583408
1682948,1472725,1583568
1682885,1473058,1583793
1682790,1473527,1585070
1682790,1473609,1585396
1682979,1473808,1586001
1683284,1473939,1586836
1683500,1474405,1586432
1683297,1474271,1586452
1683481,1474191,1585795
1683645,1474482,1585589
1683730,1474793,1585663
1683939,1475032,1585704
1683944,1475261,1584874
1684122,1475314,1584930
1684275,1475245,1584533
1684318,1475408,1583605
1684614,1475830,1582557
1684939,1475872,1582916
1685295,1476427,1582940
1684954,1476611,1583932
1685243,1476372,1584390
1685487,1476679,1584068
1685836,1476882,1584606
1685709,1477061,1584910
1685872,1477636,1585484
1685872,1477804,1586229
1685521,1477891,1587534
1685671,1478073,1587637
1685864,1478319,1589312
1686097,1478221,1590123
1686348,1478295,1590168
1686689,1478826,1592217
1686619,1479211,1592303
1686908,1479220,1592838
1687097,1479392,1591814
1687221,1479407,1592228
1687242,1479161,1593070
1687235,1478642,1593916
1687222,1478476,1594562
1687124,1477905,1594594
1687321,1477473,1596225
1686827,1476827,1596610
1686479,1476095,1597455
1686104,1475392,1598023
1685601,1474810,1598394
1684856,1473839,1597884
1684366,1473569,1598737
1683535,1473469,1598895
1683535,1472966,1600337
1683343,1472598,1600019
1682890,1472299,1600445
1682621,1472175,1600653
1682233,1471755,1600560
1681866,1471169,1600760
1681192,1471430,1601439
1680950,1471626,1600442
1680895,1471685,1600825
1680887,1471545,1600966
1681210,1471607,1601360
1681093,1471338,1600754
1680744,1471411,1601778
1680696,1471609,1602655
1680943,1471753,1602028
1681310,1471944,1602847
1681076,1471774,1601723
1681368,1471764,1602778
1681065,1471866,1602237
1681105,1472296,1603516
1681507,1472277,1602941
1680835,1472120,1603290
1680835,1472088,1602425
1680820,1472191,1604100
1680571,1472060,1604117
1680703,1472321,1604377
1680952,1472233,1603626
1680615,1471859,1604021
1680529,1471840,1604092
1680614,1471686,1604591
1680844,1471564,1604810
1680624,1471578,1604207
1680495,1471800,1604774
1680758,1471545,1603812
1680404,1471814,1603194
1680182,1471969,1599633
1680604,1472064,1597992
1680931,1472337,1596289
1681102,1472830,1594345
1680981,1472487,1591427
1680850,1472914,1590345
1681090,1473041,1587210
1681189,1473459,1586686
1681277,1473477,1584383
1681277,1473935,1583363
1681225,1473932,1582622
1681272,1474009,1582262
1681504,1474087,1582188
1681595,1474543,1582277
1681695,1474238,1581917
1681655,1474648,1583155
1681894,1474858,1584077
1681667,1475176,1586608
1682046,1475569,1587548
1682073,1475960,1587842
1682280,1475792,1588565
1682216,1475808,1589680
1682489,1476231,1591050
1682693,1476220,1592694
1683115,1476345,1593136
1683200,1476333,1594580
1683170,1476421,1596068
1683309,1476589,1597068
1683425,1476973,1596974
1683550,1476940,1597778
1683690,1477527,1598361
1683483,1477295,1598421
1683483,1477688,1598624
1683552,1477624,1599616
1683643,1477899,1599603
1683939,1478233,1599755
1684211,1477945,1599726
1684266,1477726,1599264
1684508,1478407,1599137
1684767,1478987,1599025
1684671,1478674,1599572
1685098,1478941,1598694
1684941,1478803,1599445
1685283,1478615,1598257
1685528,1478780,1598862
1685884,1479040,1598554
1686109,1479211,1598783
1686370,1479203,1599723
1686097,1479065,1599675
1686241,1478712,1600174
1686020,1478015,1600421
1686030,1477667,1601107
1685433,1477234,1600867
1684926,1476599,1601077
1684926,1475694,1601113
1684194,1475142,1601154
1683513,1473982,1601722
1683444,1473330,1601893
1682958,1472539,1601678
1682479,1471805,1601492
1680804,1471199,1602368
1680447,1470730,1602204
1680218,1470644,1602692
1679982,1470810,1602180
1679548,1470414,1603391
1679659,1469855,1603224
1679225,1469814,1604533
1678830,1469987,1605139
1679082,1470019,1604826
1679427,1470039,1605334
1679433,1469949,1605408
1679287,1469906,1606622
1679229,1469924,1606827
1679224,1469942,1607802
1679779,1470160,1608280
1679572,1470517,1608722
1679572,1470429,1608925
1679510,1470404,1609887
1679580,1470252,1610459
1679594,1470638,1612222
1679796,1470514,1612642
1679823,1470311,1613301
1679626,1469872,1613813
1679816,1469901,1614833
1680126,1470061,1615713
1679714,1469881,1616257
1679638,1469959,1615604
1679711,1469493,1616049
1679139,1469443,1617508
1679100,1469628,1617396
1679322,1469651,1618424
1679685,1469454,1618374
1679729,1469593,1619569
1679636,1469512,1618835
1679924,1469588,1619944
1679708,1469654,1620353
1680015,1469600,1621007
1679969,1470083,1621068
1679613,1470285,1621214
1679503,1470361,1621776
1679503,1470307,1621663
1679829,1470413,1621677
1679990,1470555,1622827
1680224,1470563,1622235
1680244,1470304,1622712
1680157,1470736,1622522
1680841,1470743,1621869
1681403,1471067,1620980
1681528,1471289,1619041
1680843,1471421,1615815
1681250,1471371,1614138
1681031,1471620,1612176
1681071,1472099,1607507
1681397,1472188,1605419
1681844,1472310,1603298
1681922,1472457,1600948
1682096,1472448,1599596
1682022,1472548,1598441
1682138,1472728,1597687
1682485,1473005,1596976
1682124,1473430,1596014
1682124,1473571,1595636
1682269,1473569,1595283
1682499,1473588,1595467
1682564,1474031,1596170
1682661,1474006,1596774
1682786,1473826,1596223
1682857,1474128,1596539
1683447,1474619,1596749
1683481,1474717,1597642
1683765,1475092,1598374
1683884,1474964,1599073
1683915,1474937,1598777
1683942,1474870,1599092
1684731,1475138,1598872
1684681,1475216,1599398
1684825,1475436,1599577
1684874,1475490,1598558
1685017,1475607,1598926
1685267,1475725,1598631
1685437,1475999,1598629
1685452,1476190,1599138
1685510,1476269,1598477
1685627,1476150,1597698
1685627,1476389,1597062
1685545,1476420,1596966
1685554,1476350,1597301
1685913,1475697,1597570
1685861,1474797,1596616
1685579,1474311,1597632
1684832,1472928,1597750
1684256,1472550,1598719
1683685,1471453,1598644
1683195,1470853,1598600
1682772,1470080,1599511
1682146,1469188,1600219
1681741,1468472,1600916
1681230,1468194,1600850
1681195,1467995,1600637
1681011,1467699,1602434
1680401,1467591,1602049
1680225,1467314,1603581
1680160,1467125,1603215
1680130,1467345,1604448
1679807,1467628,1604025
1679591,1467623,1604688
1679591,1467454,1604748
1679538,1467648,1605990
1679686,1467535,1606588
1679733,1468096,1607728
1680054,1467886,1606915
1680078,1467468,1607599
1680438,1467714,1607200
1680350,1467840,1608483
1680623,1467890,1608834
1680641,1468068,1609271
1680680,1468293,1609205
1680716,1467630,1608993
1680748,1467222,1609761
1680370,1467410,1610922
1680918,1467183,1611135
1681340,1467106,1611170
1681246,1467062,1611896
1681089,1466775,1611713
1681299,1466681,1612522
1681210,1466746,1612520
1681208,1466699,1613257
1681226,1466800,1613604
1681226,1466634,1613010
1680924,1466784,1613120
1680850,1466769,1613720
1681087,1467001,1614295
1681126,1466788,1614392
1681043,1467120,1613865
1681244,1466751,1614914
1681811,1466780,1614504
1681816,1467042,1615786
1681971,1467077,1615258
1682211,1466840,1615041
1682297,1467133,1615097
1682180,1466787,1615830
1682215,1467114,1615758
1682515,1467227,1617286
1682825,1467440,1618233
1683087,1467513,1618382
1683240,1467559,1618639
1683423,1467420,1617960
1683534,1467910,1618571
1683678,1467844,1617482
1683624,1468290,1618057
1683325,1468620,1617486
1683325,1468497,1618266
1683565,1468684,1618332
1683894,1468810,1619729
1684019,1468987,1619046
1683948,1468705,1618345
1684143,1468864,1617298
1683866,1469049,1616788
1684466,1469615,1614413
1684706,1469490,1613557
1684937,1469864,1611170
1684958,1469692,1609342
1684695,1469695,1606641
1685068,1469549,1604480
1685440,1470024,1598920
1685638,1470173,1596848
1685755,1470511,1594997
1685967,1470387,1593430
1686170,1470492,1592132
1686190,1470519,1591236
1686355,1470802,1590235
1686705,1471177,1589803
1686412,1471166,1589977
1686412,1471154,1589339
1686433,1471723,1589492
1686614,1471457,1590075
1686671,1471774,1590962
1686856,1471812,1591768
1687058,1471830,1591321
1687405,1472130,1591694
1687570,1472374,1593206
1687456,1472582,1593286
1687608,1472461,1594927
1687743,1472388,1595067
1687639,1471809,1596168
1687377,1471348,1596131
1687205,1470692,1597374
1686952,1470289,1597945
1686493,1469551,1598756
1686272,1468802,1598200
1685684,1467808,1597690
1685206,1467119,1598412
1684535,1466496,1598134
1684097,1465871,1598318
1683170,1465505,1598271
1682512,1464971,1597440
1682512,1464608,1597724
1682301,1464095,1597872
1682003,1463984,1598626
1681727,1464193,1598631
1681526,1463606,1598425
1681317,1463275,1598912
1681048,1463368,1598697
1681118,1463674,1599576
1680811,1463522,1599816
1680812,1463730,1599724
1680863,1463668,1599294
1680665,1463437,1599720
1680792,1463653,1600122
1680746,1463913,1601449
1681103,1464078,1601141
1681283,1464260,1601660
1681264,1464484,1601052
1681422,1464404,1601611
1681398,1464328,1601597
1681753,1464520,1602265
1681463,1464778,1602226
1680997,1464881,1602462
1680997,1464755,1602686
1680945,1464493,1603312
1681140,1464449,1604150
1680852,1464085,1604350
1681229,1464140,1604851
1681184,1463835,1604426
1680770,1463820,1604201
1680787,1464110,1604933
1680804,1463765,1604561
1681089,1463593,1604996
1681195,1463659,1605400
1681467,1463417,1605636
1681479,1463218,1606332
1681491,1463567,1606852
1681558,1463416,1606913
1682024,1463576,1606617
1682040,1463655,1607967
1682243,1463437,1607518
1682326,1463275,1607545
1682394,1463577,1608082
1682465,1463726,1608793
1682465,1463964,1609553
1682270,1464242,1609866
1682270,1464222,1610594
1682762,1464231,1610314
1682754,1464364,1611335
1682961,1464374,1611231
1683216,1464210,1611663
1683268,1464189,1611608
1683640,1464372,1612498
1683761,1464617,1612822
1684097,1464536,1613108
1684327,1464855,1613829
1684336,1464755,1614883
1684193,1464588,1614846
1684356,1464686,1615132
1684702,1464988,1615297
1684986,1464910,1616046
1685451,1465248,1616068
1685406,1465181,1617329
1685616,1465221,1616964
1685564,1465268,1618116
1686299,1465348,1617949
1686375,1465671,1618176
1686056,1465831,1616443
1686056,1465835,1615446
1686018,1465729,1613690
1686326,1465777,1611993
1687087,1466151,1610259
1686593,1465989,1608411
1686640,1465850,1606026
1686696,1465908,1603736
1687224,1466193,1601815
1687466,1466444,1599537
1687533,1466315,1597568
1687810,1466581,1596177
1687859,1466343,1594951
1687644,1466423,1593591
1687826,1466804,1592640
1688122,1467171,1592028
1688593,1467173,1591850
1688595,1467369,1591352
1688832,1467297,1593521
1689048,1467468,1592348
1688968,1467574,1591690
1689327,1467799,1592051
1689372,1468096,1594409
1689035,1467930,1593153
1689035,1468273,1592794
1689056,1467975,1593031
1689303,1467916,1594260
1689332,1467526,1594516
1689080,1466886,1594094
1688719,1466238,1593588
1687585,1465123,1595236
1686940,1464419,1594423
1686407,1463454,1594170
1685743,1462394,1593592
1685223,1461322,1594638
1684390,1460220,1592922
1683736,1459213,1592679
1683170,1458799,1591983
1682651,1458106,1591170
1682503,1457754,1591705
1682326,1457241,1591495
1681904,1456750,1590541
1681784,1456864,1590882
1681187,1456620,1591023
1680932,1456875,1591146
1681012,1456945,1591410
1681012,1456741,1591484
1680540,1457124,1591801
1680514,1457062,1591832
1680569,1457439,1592349
1680413,1457492,1590961
1680479,1457576,1591940
1680666,1458167,1591950
1680968,1458229,1593047
1680793,1458184,1594006
1680845,1458427,1594132
1680758,1458588,1593541
1680741,1458593,1594399
1680595,1458504,1594752
1680672,1458339,1595108
1680781,1458009,1595241
1681062,1457944,1595779
1680838,1457970,1595930
1680540,1457697,1596293
1680532,1457537,1597259
1680391,1457534,1598107
1680549,1457506,1597886
1680325,1457695,1598145
1680325,1457684,1598490
1679997,1457419,1597648
1679997,1456827,1598402
1680422,1456983,1598248
1680685,1457024,1598808
1680868,1456825,1598464
1681115,1456733,1599280
1681342,1456904,1598900
1681848,1457137,1599580
1681721,1457125,1599069
1681765,1457095,1600238
1682011,1456565,1599364
1682383,1456479,1599718
1682141,1456363,1599213
1682554,1456247,1599278
1683013,1456465,1600161
1683099,1456584,1598851
1683346,1456775,1599355
1683376,1456877,1598953
1683476,1457008,1599287
1683729,1457067,1599583
1683790,1457389,1599746
1683919,1457397,1600379
1683919,1457277,1600401
1684265,1457087,1600786
1684316,1456977,1600930
1684693,1457225,1601841
1684840,1457011,1601623
1684988,1457160,1601353
1685523,1457389,1602083
1685653,1457673,1602237
1685966,1457530,1603154
1685822,1457882,1602004
1686070,1457463,1601648
1686145,1457401,1601073
1686151,1457606,1600418
1686274,1457690,1597342
1686399,1457958,1593319
1686797,1458125,1591510
1686842,1458453,1588573
1687423,1458617,1587137
1687077,1458662,1584743
1687411,1458948,1583011
1687561,1459346,1580258
1687358,1459549,1578091
1687358,1460009,1576900
1687100,1460138,1576167
1687578,1460095,1574824
1687419,1460286,1574286
1687705,1460421,1574210
1687519,1460628,1574528
1687861,1460878,1573697
1688200,1461834,1575014
1688267,1462242,1575695
1688348,1462369,1575340
1688546,1462930,1575631
1688674,1462378,1575576
1688626,1462347,1576161
1688758,1462435,1577320
1688901,1462269,1579148
1688846,1461697,1578873
1688394,1460954,1579259
1688146,1459991,1580210
1687592,1459376,1579659
1686818,1457981,1580528
1686292,1457582,1580640
1685317,1456688,1580546
1684355,1455673,1580718
1684355,1454708,1579845
1683592,1453406,1579123
1682949,1452538,1579097
1682210,1452033,1579354
1681614,1451329,1579154
1681064,1450640,1578156
1680482,1450347,1578671
1680029,1450270,1578530
1680031,1449932,1577823
1679962,1449968,1577849
1679824,1450051,1578102
1679422,1449797,1578700
1679596,1450115,1578879
1679342,1450069,1579813
1679940,1450380,1579146
1680256,1450614,1580051
1680443,1450801,1580205
1680499,1450671,1580092
1680644,1451063,1580925
1680589,1451255,1581517
1680638,1451568,1582820
1680742,1451633,1583200
1680742,1451620,1583426
1680828,1451439,1584326
1680711,1451298,1585734
1680921,1451244,1584799
1680963,1451055,1585909
1681091,1450523,1585843
1680940,1450352,1585577
1680962,1450479,1585318
1680738,1450594,1586236
1680886,1450606,1586496
1680624,1450526,1585306
1680915,1450374,1586245
1680850,1450208,1585773
1681303,1450431,1586178
1681220,1450409,1586315
1681577,1450710,1586543
1681806,1450588,1587641
1682011,1450786,1587343
1681949,1450693,1588127
1682246,1451126,1588977
1682602,1451264,1589543
1682519,1451670,1589167
1682304,1451523,1590042
1682304,1451821,1590284
1682586,1451571,1591760
1682814,1451986,1592638
1682908,1452053,1593193
1683121,1452179,1595083
1683137,1452321,1594344
1683675,1452950,1594520
1683794,1453583,1595106
1684035,1453787,1595150
1684323,1453869,1595693
1684490,1453785,1594867
1684439,1454081,1595268
1684545,1454160,1595863
1684829,1454609,1596664
1685137,1454800,1597002
1685344,1455044,1597006
1685787,1455326,1597596
1685985,1455382,1596882
1685987,1455666,1597271
1685975,1455793,1596624
1685985,1456316,1596884
1686084,1456437,1597058
1686084,1456468,1597301
1686277,1456691,1597672
1686595,1456680,1597911
1686658,1456878,1597333
1687053,1456750,1596420
1687150,1456781,1595447
1687302,1457152,1594087
1687202,1457644,1591963
1687672,1457677,1590085
1687750,1458111,1588307
1687885,1458424,1585452
1688051,1458157,1583285
1687858,1458350,1580950
1688068,1458747,1579189
1688473,1458998,1576025
1688704,1459317,1575060
1688804,1459687,1573821
1689015,1459884,1574295
1689069,1460302,1574089
1689325,1460575,1574516
1689423,1460939,1574459
1689401,1461401,1575462
1689261,1461512,1575455
1689261,1461930,1575812
1689451,1462134,1576554
1689738,1462285,1576923
1689785,1462522,1577943
1689934,1462848,1578752
1690045,1462682,1578799
1689958,1462079,1579395
1689594,1461764,1580626
1689146,1460951,1580635
1688539,1460108,1580483
1687928,1459074,1581087
1687102,1457711,1581238
1686200,1456638,1581674
1685277,1455441,1581462
1684788,1454357,1581330
1684125,1453539,1580997
1683132,1452524,1580663
1682812,1451860,1581311
1682029,1451456,1581162
1681698,1451290,1581254
1681278,1451185,1580228
1680852,1451151,1580110
1680852,1450965,1579895
1680647,1450892,1580887
1680397,1450511,1580911
1680479,1450837,1581319
1680668,1450936,1580922
1680426,1451040,1581478
1680283,1451451,1580855
1680757,1452224,1581698
1680704,1453019,1581055
1681039,1453389,1581959
1681322,1453667,1581879
1680981,1453708,1582633
1680973,1454066,1583076
1681365,1454318,1584102
1681756,1454506,1584003
1681916,1454517,1583707
1682205,1454586,1583966
1682196,1454378,1584056
1682128,1454197,1584437
1682103,1454365,1585308
1682160,1454253,1584918
1682175,1454432,1585289
1681680,1454453,1585073
1681680,1454320,1585306
1681860,1454198,1586014
1681800,1454195,1585859
1682100,1454255,1585602
1682025,1454358,1585456
1681984,1453954,1585472
1682072,1454258,1585404
1682022,1454563,1586269
1682381,1454968,1586153
1682461,1455222,1586014
1682751,1455150,1585382
1682921,1454874,1586749
1682973,1455234,1585798
1683202,1455266,1587017
1683498,1455608,1587049
1683886,1455891,1587232
1684129,1456001,1587635
1684417,1455874,1588027
1684260,1456008,1588998
1684396,1456348,1589066
1684740,1457026,1589736
1684577,1457234,1590306
1684577,1457461,1589793
1684583,1457397,1589688
1685056,1457425,1590427
1685136,1457923,1590603
1685473,1457734,1590560
1685789,1457687,1589904
1686131,1458087,1590049
1686351,1458641,1590714
1686358,1459010,1592394
1686619,1459045,1591788
1686911,1459428,1592536
1686862,1459683,1592893
1687009,1459667,1593045
1687289,1459723,1593616
1687496,1460004,1593496
1687781,1460096,1594291
1687978,1460302,1594194
1687934,1460623,1594242
1688258,1460496,1594551
1688536,1460908,1594277
1688928,1461058,1591806
1688731,1461636,1591254
1688649,1461639,1588242
1688649,1461650,1587583
1688799,1461503,1584498
1689116,1461718,1582337
1689323,1461809,1580183
1689249,1461998,1578984
1689344,1462020,1576713
1689702,1462546,1575369
1689664,1463310,1574045
1689872,1463694,1572730
1690135,1464016,1572012
1690055,1464056,1571157
1690328,1463841,1570506
1690117,1464151,1571257
1690770,1463936,1570378
1691117,1464802,1570486
1691424,1464841,1570083
1691232,1464617,1571215
1691463,1464221,1571520
1691243,1463830,1571536
1691110,1463042,1573216
1690361,1462166,1573675
1689497,1461545,1574513
1689497,1460211,1573906
1688798,1459108,1575108
1687999,1457759,1575324
1687268,1456584,1575797
1686441,1455143,1576711
1685470,1454567,1576766
1683499,1453188,1576595
1683032,1452661,1577081
1682694,1452371,1576653
1682451,1452404,1576593
1682212,1452442,1576587
1682144,1452238,1576729
1681897,1452292,1576809
1681691,1452497,1576677
1682019,1452724,1577173
1682367,1452979,1577203
1682791,1453296,1576680
1682715,1453474,1577834
1682524,1453637,1578066
1683253,1454158,1578389
1683360,1454738,1578197
1683243,1455005,1578696
1683243,1455095,1578704
1683297,1455398,1579206
1683498,1455050,1579174
1683941,1455298,1579135
1683850,1455499,1579046
1683931,1455115,1578763
1683877,1455256,1578880
1683863,1455182,1579147
1683948,1455135,1579692
1684132,1455312,1579741
1683880,1454970,1580019
1683949,1454742,1581183
1683737,1454425,1580853
1683972,1454516,1581195
1683909,1454168,1580597
1684296,1454817,1580323
1684114,1454920,1581467
1684259,1455096,1581767
1684343,1455333,1581600
1684461,1455941,1581127
1684183,1456120,1580981
1684520,1456633,1580922
1684520,1456969,1581031
1684363,1457210,1581069
1684775,1457481,1581184
1684821,1458051,1581207
1684915,1458227,1581432
1684932,1458229,1581370
1685322,1458355,1581884
1685906,1459212,1581148
1686184,1459868,1582475
1686187,1459807,1581824
1686473,1460182,1581810
1686604,1460493,1582620
1686586,1460782,1582915
1686901,1460915,1583493
1687252,1461423,1582781
1687657,1461378,1582732
1687771,1461599,1582653
1687975,1461359,1582776
1688276,1461398,1583991
1688565,1461498,1584807
1689051,1461700,1585461
1688835,1461843,1584121
1688876,1461829,1584051
1688876,1461657,1585406
1689085,1461763,1584795
1689222,1462047,1584812
1689555,1461596,1584839
1689686,1461450,1584522
1689976,1461340,1584670
1690438,1461843,1585921
1690549,1461838,1586138
1690792,1462202,1586565
1691000,1462190,1585762
1691101,1461947,1586232
1691010,1461701,1584874
1691214,1461748,1584143
1691501,1461942,1580657
1691892,1462032,1578680
1692175,1461873,1576161
1692478,1461785,1573597
1692337,1462058,1571100
1692918,1462370,1568650
1692683,1462589,1567043
1692790,1462968,1564995
1692553,1462822,1564031
1692553,1462879,1562246
1692782,1462654,1560845
1693140,1461968,1560130
1692651,1461485,1560087
1692406,1460419,1559186
1691991,1459214,1558810
1689923,1456942,1559508
1689338,1455852,1560367
1688276,1454316,1562217
1687763,1453146,1561990
1686942,1451841,1561404
1686245,1450638,1562491
1685997,1449855,1563420
1685348,1449226,1565699
1684497,1448693,1566094
1684690,1448533,1566531
1684502,1448379,1566475
1684496,1448140,1567128
1684297,1448219,1567756
1684376,1448333,1567132
1684461,1448916,1567853
1684026,1449195,1568036
1684026,1449593,1568112
1684189,1449569,1568547
1684483,1449824,1567885
1684924,1450340,1568552
1685235,1450496,1567987
1685326,1450505,1567711
1685441,1450569,1567925
1686181,1451433,1568007
1686157,1451581,1567603
1686225,1451759,1567021
1686533,1451910,1566704
1686739,1451581,1566563
1686409,1451016,1566830
1686970,1451057,1567655
1686772,1450724,1566910
1687258,1450638,1567676
1687085,1450286,1567334
1686918,1450109,1568289
1687002,1449759,1569342
1686761,1449839,1568845
1686733,1449773,1568707
1687260,1449986,1569016
1686888,1449776,1568971
1686888,1449750,1569408
1687004,1449278,1569621
1687370,1449027,1570254
1687778,1449062,1570515
1687650,1448790,1571732
1687820,1448399,1570827
1687942,1448379,1571788
1688158,1448694,1572129
1688613,1448461,1572635
1688928,1448496,1572583
1689355,1447914,1573314
1689527,1447216,1573875
1689501,1446628,1574129
1690024,1446395,1574952
1690432,1446274,1574569
1690600,1446253,1575971
1690745,1446093,1575693
1690992,1446054,1576810
1691098,1446298,1578030
1690860,1446639,1578554
1690873,1447161,1578393
1691069,1447556,1579158
1690956,1447951,1579111
1690956,1448112,1579892
1691062,1448283,1579805
1691353,1448908,1580460
1691216,1448630,1580095
1691499,1448917,1580388
1691479,1449089,1580601
1692190,1449933,1581307
1692248,1450383,1581189
1692474,1450212,1581093
1692544,1450609,1580653
1692894,1450927,1581485
1693039,1450520,1581395
1693118,1450962,1582254
1693656,1450961,1583231
1694009,1451368,1583758
1694038,1451270,1584600
1693996,1451061,1585081
1694190,1451097,1585330
1694333,1451733,1585472
1694441,1451703,1584478
1694459,1452264,1585046
1694340,1452662,1584721
1694340,1452694,1585111
1694565,1453097,1585385
1694695,1453120,1585315
1694822,1453478,1585960
1695164,1453111,1584210
1695332,1453057,1584981
1695317,1453236,1582630
1695702,1453127,1581924
1695735,1452774,1578765
1695489,1452003,1576582
1695091,1450787,1573691
1694594,1449316,1571806
1693907,1447762,1566153
1693337,1446083,1563846
1692876,1444247,1562443
1692101,1442657,1560201
1691270,1440715,1559329
1690242,1438593,1558517
1689407,1437238,1557776
1688661,1435850,1556964
1688133,1435130,1557355
1687280,1434209,1556744
1687280,1433353,1556987
1686784,1432920,1556726
1686546,1432594,1557284
1686389,1432787,1557969
1686345,1432418,1557863
1686175,1432137,1557727
1686127,1432115,1558126
1686136,1432351,1557625
1686229,1432545,1558980
1686471,1433172,1558420
1686525,1433410,1558700
1686736,1433339,1559092
1686526,1433599,1559564
1686887,1433972,1559830
1687035,1434006,1560339
1688007,1434131,1560298
1688024,1433970,1560691
1688007,1434002,1561194
1688072,1433564,1560918
1688120,1433338,1560480
1688456,1432705,1560353
1688512,1432622,1560397
1688157,1431995,1560618
1688157,1431907,1560771
1688299,1431436,1560635
1688025,1431308,1560126
1688341,1431067,1559490
1688178,1430681,1560440
1688156,1430532,1560454
1687988,1430745,1561850
1688296,1431062,1562078
1688261,1430846,1562493
1688626,1431068,1562881
1688818,1431041,1563259
1688817,1430770,1563679
1688997,1430913,1564009
1689308,1430881,1564703
1689428,1431078,1565345
1689880,1431268,1566035
1689769,1431387,1566410
1690086,1431663,1566510
1690159,1432017,1567064
1690398,1432216,1567135
1690746,1432810,1566964
1690686,1433014,1567224
1690686,1432820,1567866
1690929,1433090,1569474
1691062,1433074,1570603
1691414,1433259,1570557
1691736,1432929,1570367
1691966,1432999,1570320
1691991,1432970,1570655
1692811,1432594,1570392
1692968,1432571,1570847
1693257,1432507,1570407
1693340,1432224,1571168
1693363,1431821,1570710
1693538,1431779,1571928
1693763,1431860,1571197
1694171,1431975,1570853
1694518,1432152,1571678
1694533,1432611,1571470
1694205,1432698,1571350
1694431,1433269,1572457
1694770,1433885,1572383
1694798,1434457,1572097
1694693,1435026,1571246
1694693,1435272,1571612
1694647,1435498,1570852
1694805,1435812,1571319
1695066,1436256,1571450
1695454,1436534,1571893
1695594,1436438,1570984
1695923,1437027,1571887
1696068,1437858,1571859
1696405,1437841,1571328
1696744,1438141,1570827
1696816,1438171,1570522
1697010,1438028,1570931
1697035,1438013,1572651
1697239,1438458,1572108
1697295,1438810,1571895
1697878,1439188,1571227
1697976,1439397,1572634
1698018,1439623,1573484
1698399,1439892,1572767
1698316,1440207,1572425
1698453,1440349,1572702
1698620,1441048,1573157
1698316,1441180,1573034
1698316,1441543,1572204
1698441,1441657,1571430
1698723,1441924,1570038
1698840,1441938,1568722
1698796,1441022,1566085
1698642,1440161,1565249
1697194,1438462,1562330
1696567,1437253,1558586
1695633,1436028,1555461
1694935,1434540,1552919
1694447,1433245,1549582
1693116,1431369,1545360
1692141,1430243,1543893
1691571,1428913,1541930
1691209,1427894,1540906
1690868,1426995,1540813
1690481,1426339,1540228
1690412,1425595,1540714
1690069,1425222,1541166
1690069,1424852,1541044
1690131,1424804,1541553
1689670,1424519,1542333
1689670,1424278,1542399
1689655,1424141,1543710
1689801,1424449,1544469
1689916,1424701,1545058
1690414,1424511,1545936
1690180,1424546,1548225
1690447,1424676,1548657
1691438,1424573,1549724
1691309,1424722,1550823
1691717,1424917,1550509
1691794,1424452,1551034
1691862,1423969,1551603
1692136,1423816,1552347
1692074,1423818,1552039
1692291,1423477,1552142
1692615,1423445,1552406
1692486,1423484,1552707
1692377,1423098,1552240
1692292,1422880,1552031
1692474,1422937,1551993
1692799,1422852,1551836
1692471,1422825,1552172
1692193,1422633,1552705
1692193,1422660,1553566
1692236,1422542,1553322
1692412,1422858,1554526
1692367,1422896,1554209
1692447,1423166,1555134
1692292,1423427,1554902
1692900,1424225,1554599
1692948,1424953,1555119
1693070,1424932,1555527
1693206,1425369,1556264
1693460,1425653,1556653
1693486,1425512,1555807
1693504,1425709,1555915
1693627,1426088,1555735
1694040,1426551,1556485
1694625,1426839,1556540
1694728,1427162,1555934
1695012,1427423,1556050
1695070,1427690,1556198
1694965,1428155,1555608
1695052,1428841,1554964
1695027,1429097,1558237
1695027,1429071,1555567
1695490,1429378,1554676
1695582,1429568,1553731
1695858,1430188,1553549
1695882,1430418,1553297
1696111,1430665,1553814
1696654,1430975,1552528
1696678,1431535,1553698
1696774,1431566,1553064
1696996,1432166,1554117
1696800,1432181,1556254
1696980,1432388,1554686
1697174,1432780,1554554
1697391,1433194,1554509
1697874,1433620,1555418
1698339,1433702,1554723
1698154,1434034,1555458
1698332,1434234,1554878
1698686,1434134,1554979
1698942,1434387,1554485
1698978,1434785,1554355
1698974,1434953,1554592
1698974,1434711,1554958
1698986,1434790,1555186
1698987,1435062,1555559
1699086,1435151,1555653
1699620,1435353,1555335
1699383,1435285,1555318
1699596,1436274,1554958
1699796,1436925,1555015
1699861,1437747,1556054
1700027,1438159,1555920
1700092,1438677,1556308
1700254,1438812,1558090
1700296,1439368,1557364
1700692,1439686,1559734
1700886,1440001,1559806
1701230,1440453,1561427
1701113,1440624,1560536
1700860,1440513,1560743
1700581,1440732,1559042
1700855,1440303,1557568
1700118,1439643,1554936
1699688,1438954,1553358
1699688,1437800,1550453
1698898,1436668,1548508
1698143,1435449,1545883
1697532,1434364,1542374
1696652,1433176,1540433
1695829,1431925,1537803
1693648,1430370,1535842
1693062,1430121,1533861
1692568,1429797,1531979
1692403,1429349,1530768
1691978,1429510,1529429
1691816,1429175,1529200
1691432,1429117,1528408
1691467,1429534,1528565
1691654,1429858,1529079
1691680,1430199,1529475
1691768,1430269,1529806
1692009,1430434,1530497
1692200,1430586,1530873
1692253,1430944,1531500
1692369,1431414,1532064
1692125,1431982,1531768
1692248,1432204,1531929
1692248,1432486,1531865
1692342,1432390,1533304
1692663,1433025,1533987
1692956,1432914,1535234
1692892,1432684,1535511
1692839,1432372,1536785
1693283,1431960,1537638
1693197,1432223,1537667
1693159,1431795,1536806
1693247,1431864,1536973
1693128,1431471,1536496
1693072,1431330,1536005
1693050,1431638,1534428
1693102,1431484,1533442
1693303,1432017,1531743
1693319,1431911,1532010
1693454,1432167,1531322
1693275,1432432,1531451
1693459,1432718,1532012
1693731,1433075,1532292
1693421,1433977,1531962
1692847,1434445,1532246
1692847,1435261,1532410
1693197,1435634,1534094
1693247,1436072,1534384
1693557,1436953,1534717
1693758,1437296,1535285
1693958,1437397,1535799
1694265,1438498,1536668
1694390,1439239,1536745
1694566,1439610,1536702
1694827,1440372,1537599
1695039,1440529,1537840
1694994,1440662,1538974
1694961,1441160,1539806
1695416,1441764,1540031
1695651,1442263,1540760
1695802,1442887,1541338
1696009,1443437,1542208
1696293,1443882,1542556
1696162,1444219,1543331
1696222,1444813,1543644
1696419,1445173,1544493
1696346,1445919,1544452
1696346,1446265,1545614
1696393,1446705,1545186
1696743,1446722,1545763
1696931,1447441,1544931
1697021,1447720,1546249
1696796,1447294,1545744
1697594,1448561,1546719
1697679,1448807,1548230
1697784,1449534,1548478
1697881,1449775,1549025
1698030,1450026,1550009
1697865,1450239,1550188
1698270,1450266,1551675
1698563,1450546,1552357
1698874,1450804,1552801
1699111,1450968,1553546
1699396,1451081,1554316
1699402,1451102,1556325
1699431,1451510,1554681
1699372,1451767,1555222
1699900,1452002,1555253
1699739,1452483,1555602
1699329,1452796,1556101
1699329,1452838,1556629
1699629,1453249,1556948
1699926,1453549,1556784
1700169,1453824,1557089
1700335,1453917,1557853
1700489,1454197,1558586
1701156,1454914,1558737
1701073,1455383,1558740
1701024,1455237,1558765
1701228,1455298,1558896
1701183,1454847,1559422
1700824,1454182,1560038
1700481,1453575,1561017
1699984,1452850,1563581
1699809,1452164,1561129
1699009,1451124,1559950
1698389,1450057,1557968
1697671,1448744,1555917
1696805,1447486,1553879
1695814,1446417,1551425
1695171,1445664,1547864
1694057,1445028,1545362
1694057,1444074,1541991
1693433,1443664,1539530
1692848,1443021,1536336
1692447,1442904,1532880
1691990,1442871,1530425
1691657,1442526,1528551
1691460,1442622,1526568
1691360,1442733,1525834
1691317,1442917,1524355
1691539,1443041,1524300
1691500,1442989,1523353
1691403,1443001,1522936
1691505,1443225,1523675
1691623,1443406,1523127
1691638,1443653,1524432
1692265,1444009,1524026
1692332,1444474,1525004
1692635,1444586,1526234
1692419,1444400,1527938
1692659,1444702,1528433
1692837,1444932,1529165
1692510,1444995,1529811
1692510,1444836,1530259
1692357,1444607,1530878
1692502,1444147,1530794
1692625,1444181,1531191
1692621,1443578,1531892
1692593,1443221,1532412
1692428,1443019,1533249
1692381,1443252,1533860
1692270,1443200,1535379
1692328,1443421,1535328
1692232,1443710,1536231
1692305,1443683,1535687
1691831,1443993,1535647
1692271,1444316,1535198
1692488,1444773,1534677
1692860,1445094,1535584
1692879,1445376,1535962
1692978,1445618,1536673
1693269,1445983,1536209
1693249,1446530,1536820
1693570,1446870,1537366
1693419,1447387,1537533
1693419,1447536,1537782
1693325,1448048,1539363
1693384,1448262,1539885
1693559,1448920,1540483
1693808,1449383,1540996
1693863,1449079,1541224
1693981,1449188,1541332
1694620,1450552,1542301
1694451,1450308,1542557
1694761,1450879,1542906
1694786,1451307,1542645
1695141,1451256,1543820
1695083,1451387,1544204
1695135,1451660,1545822
1695301,1451926,1546608
1695883,1452665,1546061
1696138,1452642,1546948
1696326,1452697,1546384
1696508,1452933,1547436
1696508,1453666,1547009
1696736,1453748,1547931
1696929,1454309,1547637
1696518,1454439,1548004
1696518,1454757,1547403
1696650,1454897,1547329
1696887,1454983,1546844
1697062,1455142,1547083
1697340,1455348,1547368
1697614,1455226,1547873
1697770,1455557,1549031
1698107,1456199,1549867
1698066,1456103,1549878
1698338,1456375,1549776
1698439,1456782,1549794
1698544,1456437,1549923
1698559,1456714,1550503
1698927,1456584,1550070
1699145,1456665,1550506
1699551,1456803,1550949
1699703,1456769,1551751
1699887,1456953,1552166
1700197,1457203,1552782
1700170,1457382,1553468
1700850,1457968,1553990
1700450,1458090,1553458
1700265,1457917,1555236
1700265,1458389,1554457
1700649,1458048,1556142
1700701,1458332,1555611
1700803,1457612,1555944
1700733,1456790,1555861
1700522,1456141,1557502
1699504,1454472,1557503
1698903,1453533,1557720
1698294,1452295,1555813
1697331,1450870,1555364
1696488,1449330,1553606
1695519,1447807,1549383
1694599,1446839,1545949
1693849,1445964,1542519
1693555,1445179,1538563
1692929,1444471,1535552
1692447,1444103,1532263
1691839,1443583,1529210
1691485,1443404,1526252
1691276,1443238,1523037
1690731,1443619,1521236
1690215,1443669,1520270
1690215,1443937,1519756
1690408,1444007,1519606
1690181,1444293,1519434
1690237,1444588,1518704
1690423,1444692,1519364
1690418,1444452,1519296
1691079,1445166,1520178
1690867,1445625,1520877
1691109,1445459,1521217
1691437,1445865,1521955
1691323,1445890,1522396
1691330,1445575,1523387
1691303,1445712,1525862
1691454,1445466,1527476
1691300,1445368,1527624
1691697,1444980,1528541
1691465,1444809,1529426
1691604,1444574,1529521
1691280,1444423,1530571
1691089,1444328,1530650
1691205,1444486,1530560
1690804,1444289,1530790
1690804,1444267,1529991
1690613,1444381,1531071
1690753,1444035,1530939
1690699,1444531,1529912
1690627,1444435,1529382
1690571,1444560,1528834
1690685,1445479,1529579
1690815,1445903,1530430
1691113,1446176,1529881
1691192,1446679,1530057
1691551,1446737,1530875
1691511,1446809,1531471
1691358,1446991,1531718
1691651,1447287,1531968
1692013,1447613,1532339
1692392,1448027,1532800
1692479,1448186,1533290
1692563,1448342,1533365
1692633,1448722,1533768
1692759,1449166,1534966
1692825,1449675,1535962
1692798,1449951,1537113
1692798,1450178,1537875
1692735,1450796,1538942
1693040,1450556,1539507
1693369,1450647,1540066
1693434,1450639,1539972
1693612,1450638,1540709
1693594,1450953,1540717
1694137,1451658,1541897
1694031,1452054,1541718
1694386,1452346,1541753
1694543,1452638,1542004
1694814,1452542,1542374
1694777,1452635,1543476
1694820,1453167,1543577
1694970,1453590,1544448
1695485,1453848,1543900
1695563,1454024,1544146
1695724,1454409,1544876
1696052,1454609,1545114
1696150,1454996,1545360
1696253,1455288,1544546
1696307,1455774,1544748
1695958,1455973,1545143
1695958,1456132,1545565
1696091,1456461,1546491
1696404,1456775,1546757
1696648,1457094,1547685
1696596,1456777,1548967
1696931,1457001,1549400
1697196,1457650,1550073
1697473,1458146,1550752
1697694,1457915,1550849
1697867,1458517,1552127
1697985,1458125,1552035
1697697,1457867,1553086
1697353,1457516,1553463
1697179,1456679,1553821
1696839,1455853,1553937
1696806,1454975,1554144
1696118,1453415,1554562
1695526,1452293,1555337
1694779,1451041,1555751
1693810,1449862,1555624
1692764,1448847,1555413
1691531,1447759,1555769
1691531,1446683,1554434
1690621,1446010,1552446
1690146,1445356,1550695
1689760,1444878,1547815
1689286,1444336,1545094
1688987,1443592,1541728
1688138,1443398,1539065
1687792,1443799,1535714
1687984,1443803,1532238
1687904,1443689,1528942
1688076,1444055,1526257
1687978,1444210,1524458
1688056,1444133,1522644
1688239,1444691,1518555
1688469,1445059,1517586
1688974,1445515,1517243
1689035,1445707,1516778
1689173,1445931,1516950
1689346,1445982,1516617
1689539,1446411,1516909
1689977,1446731,1517659
1689839,1447104,1518731
1689524,1447074,1519811
1689524,1447264,1521350
1689578,1447061,1522293
1689425,1446741,1522779
1689625,1447207,1523656
1689727,1446807,1524497
1689466,1446558,1525354
1689303,1446690,1525968
1689336,1446891,1526010
1689443,1447088,1525529
1689533,1447276,1525587
1689730,1447278,1525751
1689571,1447198,1524926
1689637,1447380,1524015
1689818,1447635,1523062
1690110,1447761,1522460
1690467,1448083,1521874
1690611,1448365,1520614
1690644,1448509,1519916
1690703,1448710,1519583
1690873,1449311,1519128
1691010,1449581,1519191
1691065,1450086,1519822
1691065,1450241,1519526
1691246,1450548,1520330
1691456,1450879,1519207
1691657,1451156,1518413
1691645,1451583,1518302
1691925,1451613,1518567
1691926,1451631,1518029
1692841,1452132,1517755
1692749,1452583,1516978
1693118,1452711,1517858
1693007,1452928,1517449
1693418,1452803,1518684
1693378,1453050,1518836
1693360,1453292,1519569
1693594,1453490,1520237
1693992,1453899,1521054
1694360,1453973,1521186
1694638,1454033,1521684
1694640,1454206,1522608
1694670,1454465,1522667
1695079,1454913,1523616
1695083,1455399,1524148
1694867,1455708,1525773
1694867,1455194,1526576
1695178,1455916,1526703
1695047,1456169,1525654
1695604,1456684,1526523
1695576,1456643,1526831
1696051,1456517,1527544
1696096,1456741,1527624
1696606,1457056,1529002
1696633,1457329,1529232
1696840,1457640,1530537
1697234,1457688,1531005
1697503,1457915,1531616
1697246,1457754,1531398
1697463,1458351,1530997
1697639,1458568,1531315
1698055,1458659,1531860
1698135,1458961,1531567
1698131,1459005,1532357
1698694,1458878,1533049
1698713,1459632,1533612
1698456,1459956,1534062
1698597,1460311,1533823
1698395,1460645,1534539
1698341,1460332,1535136
1698341,1460270,1535886
1698639,1459816,1536282
1698609,1459026,1536496
1698153,1457797,1537076
1697846,1456247,1538152
1695745,1453770,1537824
1694928,1452227,1538566
1693992,1451022,1538860
1693037,1449859,1539625
1692169,1448305,1540303
1691099,1446905,1539892
1690179,1445754,1540429
1689642,1445493,1538326
1689025,1444906,1537721
1688938,1444670,1534884
1688488,1444471,1533609
1688204,1444567,1529952
1687884,1444579,1527855
1687748,1445046,1524766
1687707,1445164,1522213
1687419,1445662,1519137
1687254,1445840,1515917
1687254,1446209,1513287
1687387,1446604,1510707
1687383,1447031,1508222
1687535,1447278,1506048
1687730,1447337,1504977
1687951,1447645,1503396
1688478,1448361,1503226
1688304,1448678,1504124
1688740,1448651,1505275
1688917,1449008,1505209
1689016,1448953,1506114
1688963,1448710,1507630
1688765,1448945,1508096
1688867,1448839,1508642
1688914,1448962,1509606
1689093,1448482,1510438
1688992,1448831,1511823
1689108,1448585,1513053
1688954,1448575,1513787
1688823,1448922,1514778
1688792,1449206,1514889
1688299,1449440,1515506
1688299,1449735,1516456
1688453,1449793,1516797
1688791,1450023,1517467
1688904,1450603,1517150
1689112,1450572,1516904
1689303,1450695,1517107
1689296,1451221,1517191
1689702,1451869,1516603
1689697,1452425,1516361
1690094,1452788,1516741
1690004,1452995,1517347
1690217,1453147,1518376
1690172,1453277,1518755
1690543,1454125,1519541
1690857,1454138,1520183
1691185,1455043,1520863
1691709,1455158,1521514
1691804,1455641,1521542
1691913,1455525,1521813
1691744,1456121,1522340
1692229,1456472,1523057
1692172,1457331,1524198
1691959,1457599,1525620
1691959,1458250,1526302
1692491,1458504,1526753
1692420,1458963,1527020
1692873,1459186,1527866
1692832,1459075,1528219
1693012,1459419,1529145
1693107,1459589,1529265
1693821,1460249,1530417
1694049,1460300,1530039
1694025,1460878,1532447
1694114,1460773,1533357
1694368,1460943,1533587
1694499,1461417,1533773
1694634,1461779,1533912
1695093,1461975,1534580
1695280,1462035,1534562
1695379,1462261,1535492
1695741,1462476,1535068
1695592,1462897,1536005
1695901,1463095,1536336
1695874,1463566,1537048
1695893,1463916,1537950
1695893,1464122,1538320
1696132,1464146,1537794
1696439,1464357,1538972
1696605,1464864,1538581
1696985,1465050,1539654
1696943,1464862,1540552
1697500,1465191,1541545
1697500,1465536,1542040
1697796,1465792,1542112
1697796,1465801,1542938
1697850,1465489,1543159
1697701,1464464,1543423
1697532,1463584,1544431
1697123,1462548,1544767
1696908,1461239,1545535
1696005,1459959,1545840
1695207,1458512,1545955
1694301,1456770,1545339
1693360,1455255,1545221
1692319,1453868,1545441
1691213,1453085,1545278
1690076,1451660,1545877
1689108,1450921,1545655
1689108,1450170,1545654
1688605,1449540,1544627
1688090,1449039,1542698
1687755,1448629,1540989
1687288,1448213,1539024
1686857,1448692,1535079
1686687,1449028,1532052
1686699,1449016,1528537
1686763,1449466,1525043
1686966,1449719,1517649
1687246,1449562,1514173
1687277,1449963,1512578
1687516,1450472,1509538
1687806,1450711,1507345
1688416,1451089,1506056
1688635,1451497,1504844
1688660,1451606,1504390
1688747,1451852,1504487
1688979,1452014,1503424
1689054,1452060,1504262
1689109,1451952,1504377
1689109,1451712,1505024
1688882,1451746,1506034
1689086,1451320,1505973
1688946,1451172,1506892
1688773,1451007,1507554
1689052,1450435,1508343
1688820,1450271,1509695
1688601,1450189,1511306
1688741,1450122,1513467
1688720,1450161,1515089
1688834,1450247,1516414
1688828,1449931,1518047
1688785,1449749,1517775
1688887,1449996,1517518
1688996,1450296,1517432
1689001,1450431,1517463
1689476,1450690,1516580
1689764,1450605,1516329
1689888,1450695,1516160
1690017,1450932,1515941
1690414,1451107,1516116
1690346,1451480,1516146
1690216,1451759,1516290
1690216,1452007,1516424
1690223,1452072,1516259
1690615,1452373,1515845
1690854,1452750,1515764
1691042,1452651,1516442
1690573,1452713,1515798
1691723,1453131,1516361
1691895,1453592,1516815
1692111,1453813,1517767
1692264,1454113,1516956
1692560,1454339,1519074
1692477,1454166,1520598
1692363,1454481,1521283
1692747,1454894,1521053
1693153,1455065,1522402
1693509,1455314,1523026
1693418,1455488,1522266
1693539,1455691,1523499
1693543,1456071,1523589
1693722,1456360,1524989
1693758,1456958,1524985
1693749,1457219,1525000
1693749,1457530,1526151
1693972,1457560,1524866
1694288,1457865,1525090
1694343,1458187,1525396
1694403,1458610,1526132
1694729,1458362,1526864
1695077,1458931,1527071
1695456,1459494,1527555
1694969,1459424,1527878
1695575,1459510,1527364
1695689,1459897,1528566
1695846,1459890,1528072
1695200,1460133,1529204
1695973,1460255,1529001
1696129,1460039,1530089
1696374,1459635,1530347
1696095,1458969,1531646
1695650,1457810,1531517
1694954,1456723,1532784
1694323,1455384,1531378
1693511,1454109,1532631
1692650,1452692,1532030
1692650,1450769,1535592
1691402,1449661,1533834
1690292,1447873,1535108
1689425,1446795,1534307
1688506,1445758,1535665
1687847,1444655,1536283
1687038,1444260,1536090
1685896,1443876,1535380
1685661,1443800,1536610
1685564,1444140,1536757
1685489,1444340,1537173
1685343,1444306,1537028
1685335,1444488,1537660
1685554,1445044,1536249
1685839,1445625,1534597
1686292,1446380,1532850
1686468,1447254,1530224
1686423,1447647,1527355
1686883,1447739,1523985
1687044,1448915,1520356
1687488,1449669,1517169
1687485,1450410,1513386
1687476,1450631,1510457
1687476,1451002,1508082
1687486,1451158,1505966
1687774,1451484,1505337
1687814,1451561,1502629
1687946,1451290,1502359
1688047,1451371,1500451
1687798,1451105,1500660
1687722,1451322,1500947
1687922,1451227,1501756
1687739,1451345,1502755
1687721,1451373,1504470
1687598,1451275,1504470
1687427,1451507,1505512
1687582,1451661,1505514
1688093,1451977,1506527
1688174,1452229,1506660
1688334,1452272,1507459
1688429,1452571,1508246
1688479,1452890,1508956
1688537,1453355,1510327
1688717,1453937,1511158
1688570,1454689,1511103
1688570,1454965,1511331
1688859,1455311,1511579
1688975,1455841,1511731
1689187,1456612,1511595
1689269,1457188,1510923
1689593,1457492,1510201
1689900,1458584,1509982
1690078,1459309,1510205
1690506,1459535,1510125
1690340,1460186,1509945
1690860,1460363,1509550
1690875,1460358,1509531
1691087,1460374,1509767
1691204,1460905,1510359
1691508,1461032,1510963
1691651,1461550,1511586
1692123,1461823,1512091
1692227,1462059,1511847
1692413,1462559,1511722
1692645,1463080,1512196
1692633,1463550,1512587
1692741,1463894,1512593
1692741,1464263,1513401
1692620,1464512,1514134
1692891,1464979,1514930
1693428,1465271,1515128
1693669,1465398,1516218
1693645,1465374,1517867
1694105,1466183,1518125
1694413,1466423,1518164
1694625,1466504,1518770
1694965,1466972,1518837
1694784,1467192,1519089
1695342,1466861,1519495
1695306,1466847,1520075
1695560,1467769,1521151
1695809,1467371,1522078
1696220,1467521,1522495
1696297,1467447,1522708
1696482,1467210,1522693
1696669,1466780,1522346
1696245,1466211,1523340
1695954,1465215,1523849
1695679,1464372,1524683
1694628,1462967,1525841
1694628,1461537,1525475
1694151,1459659,1526739
1693248,1457971,1526407
1692208,1455937,1527333
1691151,1453880,1527720
1690112,1451929,1527861
1687073,1449064,1527973
1686290,1448287,1528843
1685331,1447203,1529216
1684953,1447045,1529610
1684544,1446217,1530207
1684191,1445565,1531005
1683948,1445505,1530562
1683832,1445452,1531367
1683932,1445493,1532872
1684286,1445647,1533005
1684310,1446118,1535053
1684607,1446355,1535902
1684386,1446868,1535902
1684767,1447443,1536676
1684853,1447965,1537618
1684774,1448558,1537921
1684678,1448835,1538126
1684678,1449306,1538171
1684988,1449350,1538177
1685375,1449808,1537819
1685646,1449928,1536561
1685661,1449649,1534756
1686063,1449468,1535203
1686069,1449189,1530068
1685995,1449239,1526493
1685870,1449013,1519377
1685815,1449230,1516654
1685723,1448891,1513514
1685459,1448643,1509930
1685383,1448437,1507380
1685239,1448687,1505138
1685366,1448817,1503585
1685447,1448971,1502549
1685410,1449046,1502042
1685546,1449013,1501697
1685895,1449022,1501861
1685735,1449493,1502156
1685832,1450001,1502834
1685507,1450407,1503098
1685507,1450903,1503202
1685657,1451110,1503316
1686176,1451413,1505333
1686144,1451715,1505674
1686520,1452153,1506572
1686662,1452247,1507330
1687061,1453193,1507019
1687239,1453735,1507166
1687554,1453993,1508907
1687706,1454267,1510136
1687895,1454711,1510631
1687915,1454562,1511976
1688136,1454726,1512633
1688250,1455131,1512678
1688835,1455378,1513218
1689262,1455557,1512311
1689489,1455736,1512853
1689433,1455762,1512621
1689449,1456080,1511649
1689826,1456434,1512602
1690266,1456672,1512074
1690119,1457346,1512700
1690047,1457497,1512996
1690047,1457695,1512958
1690296,1457984,1513377
1690474,1458349,1513629
1690554,1458430,1514198
1690714,1458265,1514561
1690933,1458384,1515881
1691433,1459033,1516723
1690834,1459540,1517256
1691574,1459861,1518251
1691797,1459994,1517901
1692296,1459969,1518397
1692157,1459926,1518281
1692013,1460417,1519574
1692230,1460642,1520605
1692460,1460845,1521585
1692892,1461168,1522149
1693183,1461371,1522654
1693420,1461456,1523770
1693473,1461839,1524453
1693554,1462047,1524633
1694033,1462645,1525334
1693616,1462815,1526236
1693616,1462985,1525833
1694029,1462814,1527013
1694050,1462972,1528090
1694204,1462282,1528942
1694224,1461446,1528342
1693794,1460616,1528454
1692391,1457927,1528412
1691491,1456268,1529295
1690455,1454278,1530518
1689343,1452669,1529838
1688120,1450237,1530267
1686992,1448504,1530043
1685981,1446655,1530530
1685069,1445171,1530972
1684324,1443777,1531138
1683907,1442749,1530950
1682990,1441891,1531089
1682682,1441191,1532033
1682355,1441009,1532364
1681772,1440730,1532388
1682011,1441122,1533045
1681632,1441207,1532858
1681632,1441023,1533597
1681541,1441150,1534062
1681453,1441420,1535076
1681780,1441907,1534978
1681966,1442390,1536168
1681997,1442457,1535403
1682106,1443066,1537342
1683023,1444010,1537427
1683133,1444854,1537736
1683380,1444846,1538253
1683615,1445213,1537720
1683608,1445221,1537761
1683464,1445134,1538185
1683595,1444556,1538492
1684003,1445222,1539085
1684244,1445280,1539450
1684099,1445011,1538528
1683952,1444955,1536836
1683909,1444757,1535514
1683700,1444898,1533694
1683725,1444693,1531541
1683347,1445070,1527855
1683152,1444923,1524028
1683152,1445358,1521074
1683296,1445050,1517534
1683236,1445405,1514921
1683940,1445782,1510807
1683501,1445866,1508077
1683314,1445998,1505233
1683722,1446901,1503394
1683919,1447528,1502112
1684088,1447775,1502404
1684453,1448138,1503348
1684575,1448813,1503503
1684605,1448756,1504819
1684900,1449133,1505009
1685170,1449588,1506641
1685464,1450066,1506134
1685961,1450363,1508378
1686163,1450974,1508281
1686284,1450953,1510458
1686052,1451345,1510929
1686347,1451975,1512341
1686749,1452450,1513020
1686630,1452838,1514089
1686630,1453009,1514036
1686766,1453257,1515068
1686983,1453325,1515749
1686990,1453818,1516090
1687334,1453660,1515696
1687512,1453873,1516162
1687875,1454495,1517353
1687983,1454970,1517334
1688032,1455145,1516405
1688363,1455365,1515280
1688403,1455795,1514951
1688748,1456162,1515144
1688907,1456105,1515038
1689132,1456314,1515779
1689268,1456737,1515479
1689760,1457131,1516614
1689992,1457306,1517142
1690047,1457286,1516344
1690203,1457565,1517276
1690383,1457797,1517750
1690686,1458096,1518289
1690584,1458617,1518137
1690610,1458899,1518468
1690345,1459082,1518667
1690345,1459281,1518699
1690990,1459453,1518251
1691249,1459626,1518728
1691485,1459543,1519521
1691573,1459562,1520688
1691617,1459503,1522207
1691437,1458974,1522976
1691458,1458447,1523414
1691051,1457550,1524317
1690446,1456507,1524274
1689397,1454972,1524122
1688687,1453916,1523641
1687855,1452242,1524143
1687091,1450867,1524093
1686191,1449445,1523433
1685362,1448191,1523204
1684580,1446823,1522986
1683662,1445944,1523891
1682860,1445315,1523677
1682691,1445115,1523733
1681647,1445076,1524184
1681647,1445086,1525307
1681288,1445113,1526618
1681140,1445120,1527417
1680889,1445701,1528779
1680904,1445851,1529612
1681009,1445847,1530655
1681106,1446870,1531764
1681309,1447595,1533560
1681289,1448103,1534246
1681668,1448776,1534830
1681838,1449210,1536283
1681900,1449625,1537332
1682071,1449715,1538364
1682533,1450302,1538939
1682417,1450477,1539896
1682820,1450761,1540458
1683035,1450954,1541669
1683143,1450888,1541692
1683193,1450828,1543512
1683389,1451008,1544433
1683230,1450910,1545967
1683141,1451000,1546465
1682683,1450944,1547599
1682683,1450815,1547579
1682899,1450656,1547888
1682667,1450742,1546957
1682710,1450654,1545798
1682703,1450764,1545727
1682534,1450629,1546468
1682764,1451286,1547334
1682969,1451729,1549183
1683008,1451675,1548457
1683192,1452206,1547435
1683408,1452187,1545613
1683295,1452474,1543325
1683424,1452716,1540668
1683765,1453354,1537857
1683977,1453521,1534991
