GREEN,RED,IR
1765313,1736648,1258783
1765680,1737573,1260217
1766168,1737863,1259422
1766408,1738220,1259739
1765997,1738762,1260236
1765901,1739211,1260240
1766239,1739509,1261087
1766493,1739746,1260280
1766555,1739780,1260966
1766631,1740131,1260357
1766707,1739962,1260230
1766740,1739933,1259432
1766930,1740195,1259617
1767094,1740202,1259508
1767489,1740401,1259965
1767694,1740487,1259443
1767862,1739958,1260284
1767712,1740040,1260026
1767590,1739642,1260577
1767716,1739878,1259958
1767632,1739940,1259630
1767338,1739941,1260097
1767338,1739661,1259871
1767506,1739545,1259866
1767649,1739163,1259925
1767537,1739478,1260950
1767672,1739049,1261304
1767580,1739222,1261467
1767943,1739644,1261311
1767606,1739131,1261655
1767611,1739390,1261801
1767544,1738749,1262356
1767260,1738418,1262718
1766791,1737647,1262961
1766592,1737475,1262650
1766272,1737018,1262715
1766225,1736972,1263032
1766236,1736837,1263198
1766240,1737003,1263533
1765754,1736502,1264250
1765780,1736721,1264160
1765590,1736577,1263972
1765090,1737140,1263769
1764827,1737144,1264676
1764827,1736903,1264391
1764778,1736869,1264891
1764698,1736924,1265151
1764568,1736471,1264916
1764486,1736459,1265252
1764171,1735761,1265378
1764045,1736087,1265072
1763809,1736046,1265549
1763659,1736336,1266177
1763483,1736085,1265596
1763526,1736484,1265841
1763321,1736084,1266051
1763287,1736238,1267398
1762870,1735508,1266527
1763006,1735797,1265976
1762938,1735618,1265702
1763221,1735653,1265088
1763085,1735471,1264670
1763066,1736009,1263428
1762795,1736141,1262620
1762719,1736693,1261703
1762919,1736708,1260875
1763023,1737664,1260237
1762376,1737912,1259891
1762370,1738052,1259434
1762370,1737634,1259524
1762572,1738071,1258820
1762650,1737956,1258840
1762525,1738021,1258263
1762645,1737859,1258832
1762578,1738215,1258820
1762627,1738742,1259297
1762425,1738610,1259376
1762705,1738658,1259719
1762630,1738197,1259259
1762533,1737546,1259558
1762420,1737009,1258981
1762656,1737015,1259618
1762605,1737014,1260102
1762783,1737475,1260446
1762456,1737713,1259780
1763138,1738527,1259327
1762996,1738009,1259871
1763181,1738151,1260160
1763021,1738439,1260031
1762707,1738715,1260156
1762661,1738488,1259127
1762815,1738903,1259679
1762724,1738789,1259232
1763107,1738864,1259260
1763048,1738623,1259522
1763079,1738682,1259922
1762826,1738677,1260131
1763038,1738842,1259635
1763100,1738471,1260351
1763571,1738928,1259810
1763464,1738605,1260882
1763725,1738585,1260265
1763503,1738466,1260814
1763609,1738663,1260778
1763770,1738833,1261209
1763629,1738960,1261160
1763629,1739029,1261691
1763574,1738965,1260976
1763683,1738708,1261595
1763627,1739064,1261021
1763968,1739106,1262476
1764236,1739397,1262147
1763877,1739439,1262011
1763706,1739236,1262706
1763680,1739150,1262650
1763906,1738958,1262928
1763487,1738150,1262932
1763624,1738045,1263648
1763219,1737522,1263638
1762955,1736953,1264331
1762752,1736916,1264560
1762901,1737142,1264254
1763045,1737093,1264823
1762992,1736873,1264541
1762713,1736712,1264599
1762540,1736252,1265067
1762633,1736203,1265348
1762670,1736241,1265316
1762285,1736257,1265119
1761903,1735950,1265077
1761903,1735503,1265325
1761582,1734530,1265542
1761678,1734629,1264845
1761516,1734294,1264608
1761475,1733745,1265267
1761154,1733137,1265687
1760817,1732867,1265454
1760804,1732766,1264672
1760908,1732705,1263643
1760427,1733082,1262485
1760561,1733109,1261186
1760164,1732827,1260597
1760234,1733056,1259492
1760195,1733248,1257916
1760373,1733383,1256673
1760475,1733869,1255447
1760506,1734105,1254661
1760226,1733896,1252836
1760224,1734109,1252950
1760292,1734539,1253013
1760273,1734810,1253167
1760031,1735292,1251945
1760031,1735283,1252514
1759931,1735484,1252327
1760061,1735291,1252857
1760001,1735703,1252311
1759881,1735064,1252628
1760095,1735464,1252763
1759952,1735788,1251929
1760394,1736068,1251921
1760268,1735921,1252015
1760368,1735975,1252175
1760031,1736076,1251744
1760207,1735774,1251843
1759986,1735716,1252419
1760445,1735895,1251847
1760312,1736258,1252412
1760528,1736319,1252221
1760841,1736498,1251933
1760939,1736134,1251491
1760743,1736154,1250490
1760882,1736045,1250436
1761080,1736308,1249938
1761033,1736665,1250769
1761020,1736693,1249782
1761020,1736951,1249646
1761198,1737335,1250085
1761086,1737245,1250308
1761322,1737585,1250881
1761342,1737522,1250605
1761469,1737679,1250029
1761861,1738006,1250280
1761821,1738378,1251401
1761907,1738768,1250749
1762182,1739389,1252124
1762260,1739673,1252204
1762367,1739779,1252097
1762314,1740128,1252752
1762693,1740733,1252051
1763179,1741002,1252334
1763471,1741589,1252257
1763506,1742010,1253038
1763505,1742047,1253126
1763735,1742706,1253834
1764064,1743396,1253982
1764474,1744044,1254611
1764820,1743594,1254820
1764908,1744054,1255448
1764881,1744114,1254653
1764880,1744312,1255579
1764450,1744095,1255463
1764522,1744087,1255299
1764462,1743792,1255157
1764577,1743721,1255294
1764581,1743900,1255562
1764465,1743551,1256507
1764322,1742811,1256505
1764273,1743284,1256696
1764348,1743174,1255766
1764536,1743136,1256644
1764492,1742382,1256758
1764497,1742084,1256836
1764380,1741422,1257377
1764187,1741332,1257492
1764055,1740617,1257807
1763669,1740843,1258338
1763151,1739724,1259060
1763151,1739212,1259054
1763381,1738139,1259226
1763201,1737813,1258947
1763077,1737425,1259315
1762737,1737174,1258977
1762814,1736889,1259453
1762404,1737424,1258408
1762215,1737938,1257714
1761994,1737472,1255633
1762181,1737969,1254733
1762025,1737957,1252640
1761744,1738062,1249643
1761659,1738367,1248247
1761709,1739049,1247044
1761554,1739101,1245331
1761834,1740055,1244309
1761830,1740278,1244273
1761901,1740676,1244898
1761867,1741232,1245047
1762120,1741978,1244240
1761856,1742731,1244053
1761878,1743514,1244292
1761878,1743596,1244973
1761522,1743976,1245024
1761758,1744048,1245524
1761729,1744824,1244914
1761778,1744804,1244826
1761771,1744787,1244851
1761887,1744704,1245391
1761760,1745363,1245008
1761949,1745227,1245266
1762143,1745290,1245494
1762116,1745020,1245347
1762216,1745129,1245441
1761966,1744449,1244955
1761948,1744516,1245381
1762075,1744385,1245387
1762370,1744282,1245744
1762652,1744038,1244710
1762550,1743734,1244496
1762415,1743042,1244241
1762442,1742835,1244975
1762356,1742614,1244224
1762525,1742703,1244243
1762234,1742549,1244513
1762238,1743032,1244987
1762238,1743038,1245125
1762291,1743631,1245859
1762102,1743988,1245618
1762337,1744670,1246033
1762545,1744504,1246432
1762393,1745098,1246422
1762445,1746474,1246657
1762512,1746983,1246938
1762994,1746711,1247071
1762893,1747524,1247581
1762941,1747888,1248580
1762920,1747186,1249044
1762974,1747650,1249540
1763082,1747525,1250075
1763236,1747929,1250482
1763624,1747992,1250035
1763912,1748477,1250713
1763937,1748054,1250814
1763897,1748573,1251397
1763993,1748522,1250948
1764226,1749020,1251096
1763769,1749133,1251035
1763769,1749122,1251855
1763681,1748664,1251540
1763660,1748400,1252194
1763634,1748304,1252638
1763808,1748659,1251911
1763786,1748635,1252272
1763604,1749803,1253349
1763612,1751145,1252828
1763482,1751724,1253572
1763590,1752466,1253880
1763405,1752883,1254022
1763448,1753550,1254045
1763032,1753180,1254299
1763523,1753739,1254637
1763363,1753811,1254990
1763874,1753908,1255568
1763703,1753325,1255092
1763630,1753416,1256104
1763377,1752942,1255735
1763456,1753314,1256783
1763705,1753505,1256884
1763264,1754044,1256825
1762743,1754083,1256758
1762743,1754305,1257600
1762911,1754060,1257890
1763038,1754478,1257780
1763185,1754186,1256978
1762894,1754428,1256864
1763106,1754352,1256163
1762869,1754769,1255134
1762886,1755185,1252517
1762746,1755084,1251289
1762839,1755299,1249324
1762937,1754838,1247329
1762849,1754697,1244997
1762416,1754217,1244414
1762661,1754401,1243518
1762806,1754409,1243347
1763081,1754987,1242868
1762757,1755147,1243332
1762926,1755276,1243049
1762771,1755685,1242244
1763117,1756172,1243378
1762760,1756722,1243188
1762667,1757051,1242672
1762667,1757038,1242803
1762712,1757114,1243321
1762863,1757481,1243871
1762691,1758003,1243740
1762924,1757942,1243874
1763100,1757824,1244207
1763163,1757991,1243780
1762967,1758270,1244096
1763346,1758040,1243945
1763516,1758646,1244194
1763841,1759558,1244814
1764068,1760494,1245229
1764517,1760279,1245399
1764416,1760223,1244945
1764518,1760424,1245105
1764486,1760441,1245005
1764495,1760738,1245182
1764520,1760796,1245232
1764524,1760726,1244922
1764466,1760585,1245931
1764593,1760415,1245411
1764458,1760401,1244876
1764660,1760492,1245939
1764332,1760128,1246126
1764354,1760159,1246418
1764465,1760348,1246319
1764865,1760470,1246760
1764816,1760318,1247118
1764681,1760003,1248660
1764519,1759633,1248107
1764572,1759524,1248420
1764268,1759409,1248519
1763933,1759515,1249344
1763659,1759308,1249524
1763585,1759229,1250377
1763585,1758748,1250037
1763560,1758533,1250538
1763469,1758496,1250324
1763430,1758039,1250803
1763210,1757493,1251514
1762972,1757212,1252146
1762911,1757192,1252120
1762963,1757258,1252508
1762798,1757245,1252670
1762413,1757182,1252638
1762382,1756893,1253470
1762279,1756955,1253601
1762396,1757024,1253559
1762451,1757233,1254417
1762621,1757513,1254213
1762579,1757729,1254248
1762327,1757643,1254510
1762214,1757773,1255023
1761844,1757827,1254554
1762033,1757428,1256052
1761828,1757530,1256268
1761478,1757627,1256407
1761478,1757635,1256958
1761565,1758077,1257497
1761558,1757827,1257513
1761545,1758145,1257644
1761613,1758088,1258083
1761474,1757606,1258616
1761206,1757864,1259590
1761302,1757721,1259546
1761120,1757853,1260393
1761090,1758015,1260180
1761158,1758011,1260794
1761133,1757821,1260511
1761089,1757978,1261989
1761237,1757935,1261517
1761473,1758168,1262202
1761469,1758070,1262205
1761421,1758359,1261984
1761521,1757998,1261390
1761398,1758747,1260456
1761556,1759114,1258987
1761636,1759584,1257349
1761258,1759660,1255555
1761258,1759591,1251801
1761371,1759687,1250367
1761410,1759613,1248856
1761443,1759544,1247434
1761440,1759998,1247469
1761569,1759846,1247110
1761660,1760039,1246727
1761642,1760640,1245853
1761750,1760315,1245948
1761688,1760565,1246114
1761754,1760246,1245652
1761834,1759945,1245386
1761486,1759804,1246140
1761929,1760393,1246645
1762097,1760672,1247166
1762333,1761228,1247418
1762369,1761114,1246757
1762353,1761383,1247905
1762268,1761066,1247454
1762599,1761538,1248006
1762477,1761614,1247325
1761948,1761871,1248250
1761548,1761513,1247607
1761548,1761699,1248402
1761846,1761291,1248259
1761603,1761368,1248246
1761653,1761092,1248571
1761501,1760737,1248249
1761280,1760248,1248168
1761024,1760425,1248028
1760638,1760755,1248694
1760568,1760730,1248159
1760604,1760976,1248411
1760381,1760759,1248420
1760185,1760841,1248886
1759742,1760860,1249665
1759971,1761169,1250116
1759962,1761159,1250642
1760238,1761406,1250667
1759632,1761369,1252037
1759986,1761369,1252543
1759601,1761617,1252026
1759701,1761751,1251779
1759271,1762066,1253008
1758816,1762312,1253031
1758816,1761974,1253541
1758717,1762141,1254520
1758816,1761988,1254890
1758582,1762234,1254865
1758410,1762062,1254875
1758354,1761959,1254880
1758187,1762346,1256321
1758008,1762087,1256270
1757981,1762070,1256366
1757721,1761270,1256394
1757293,1760529,1256843
1757286,1759819,1257270
1756505,1758069,1257853
1756061,1757149,1257942
1755940,1757156,1258979
1755865,1756506,1258730
1755765,1756437,1259662
1755708,1755922,1260112
1755874,1756479,1259923
1755000,1756165,1259998
1755070,1755878,1260312
1755084,1755757,1260982
1755055,1755707,1261568
1754907,1755380,1261837
1754468,1754997,1261926
1754537,1754539,1262434
1754557,1754817,1262804
1754456,1754748,1263413
1754964,1754823,1263942
1754824,1754618,1264174
1754643,1754806,1264581
1754617,1754696,1265264
1754875,1754937,1265139
1754672,1754986,1265576
1754664,1755569,1266694
1754233,1755844,1267956
1754233,1756067,1267970
1754497,1755943,1267774
1754243,1756418,1268603
1754513,1756648,1269189
1754230,1756740,1269157
1754496,1756106,1269117
1754094,1756014,1269710
1754039,1756197,1269643
1753861,1755981,1269562
1753816,1756022,1268911
1753571,1755880,1267781
1753547,1755216,1265884
1753027,1754780,1264163
1753144,1754490,1262674
1752790,1754352,1261760
1753170,1754017,1259657
1752920,1753724,1259168
1752872,1753507,1258506
1752835,1753219,1257839
1752332,1753333,1257922
1752096,1752849,1258446
1751861,1752630,1258619
1751270,1752244,1259250
1751270,1751723,1259457
1751315,1751319,1259477
1750937,1751310,1259169
1750849,1750965,1259665
1750625,1750470,1260428
1750264,1750069,1261113
1750156,1750653,1260822
1749723,1750700,1261368
1749835,1750699,1261990
1749591,1750441,1262558
1749322,1750574,1262939
1749409,1750725,1263893
1749178,1750138,1264077
1748873,1750159,1264226
1748820,1750100,1264631
1748784,1749910,1264959
1748829,1750105,1265514
1748727,1750017,1265447
1748686,1749738,1265274
1748414,1749732,1266009
1748434,1749737,1266310
1748299,1749906,1267132
1747891,1750058,1267582
1747551,1749704,1267979
1747551,1749547,1268381
1747515,1749352,1268396
1747528,1749234,1268683
1747658,1749093,1268832
1747321,1748402,1269556
1747345,1748423,1270068
1747011,1748449,1270307
1746845,1748372,1270985
1747065,1748535,1273076
1746885,1748374,1273370
1746886,1748689,1273637
1746895,1748476,1274568
1746936,1748328,1275372
1746652,1748672,1275621
1746700,1748625,1276622
1746824,1748721,1277103
1747000,1748813,1277527
1746946,1748815,1279054
1746917,1748577,1280350
1747005,1749040,1280557
1747057,1749087,1282154
1746505,1748641,1283376
1747012,1748910,1283565
1747032,1749138,1283869
1747388,1749168,1284278
1746877,1749716,1285174
1746576,1749364,1285211
1746599,1749409,1285289
1746108,1748229,1285853
1745827,1747246,1287053
1745221,1745908,1287058
1744885,1745670,1286857
1744210,1745505,1287283
1743921,1745948,1287393
1743741,1746460,1286888
1744043,1746643,1288138
1743907,1747095,1288202
1743417,1747401,1288459
1743335,1747090,1288699
1743355,1747117,1288505
1743251,1746786,1288321
1743297,1746678,1289167
1743042,1745972,1288718
1742673,1745495,1289137
1742461,1744695,1289839
1742387,1744453,1289415
1742201,1743671,1289037
1742223,1743290,1289384
1741903,1742664,1289892
1741895,1742171,1290239
1741564,1741778,1289794
1741507,1741883,1289438
1741349,1742209,1288308
1740954,1742594,1288011
1740590,1742647,1284746
1740590,1743655,1282415
1740574,1743382,1280405
1740795,1744407,1278774
1741006,1744424,1276811
1740799,1744674,1276126
1740629,1745701,1275234
1740536,1746043,1274508
1740664,1746454,1273769
1740812,1746488,1273438
1740873,1746588,1273437
1740678,1746031,1273446
1740419,1745862,1272906
1740603,1745444,1271857
1740744,1745280,1272019
1740906,1744508,1271924
1740921,1744158,1272175
1740708,1743603,1271606
1740589,1743241,1271538
1740603,1743034,1271464
1740598,1743014,1272111
1740435,1743014,1271460
1740166,1743282,1271088
1740166,1743095,1271323
1740141,1743231,1271120
1740257,1742732,1270632
1740150,1743210,1270517
1740093,1742877,1271338
1740060,1743017,1270956
1740400,1743863,1270640
1740274,1743737,1269996
1740357,1744183,1269375
1740329,1744237,1268884
1740516,1744440,1268388
1740352,1744054,1268535
1740446,1744587,1268354
1740373,1744194,1267971
1740611,1744446,1267867
1740611,1743963,1268485
1740539,1744075,1268791
1740510,1743413,1268484
1740327,1743625,1268540
1740094,1743101,1268443
1740169,1743446,1268533
1739750,1743099,1269154
1739489,1742863,1268782
1739489,1742104,1269446
1739286,1741940,1269941
1739220,1741318,1270258
1739032,1741145,1270090
1738879,1740187,1271110
1738593,1740104,1270800
1738050,1739802,1271867
1737936,1739662,1271205
1737839,1739928,1271932
1737343,1739434,1272082
1737151,1739289,1272529
1736747,1739277,1272846
1736905,1739317,1272475
1736722,1739156,1273072
1737020,1739356,1272869
1736893,1739047,1273251
1736790,1738754,1274242
1736332,1738266,1273598
1736357,1738185,1273098
1736218,1737866,1273990
1735933,1738183,1274593
1735933,1737401,1274039
1735404,1737603,1274365
1735494,1736926,1275063
1735476,1736823,1274361
1735494,1736541,1275763
1735124,1735951,1275694
1735050,1735742,1275757
1734949,1735770,1276210
1734821,1735856,1276555
1734474,1735900,1276736
1734557,1736080,1276794
1734291,1735625,1276928
1734110,1735329,1277827
1734253,1735524,1277676
1734501,1735591,1278413
1734432,1735431,1277729
1734653,1735587,1278013
1734511,1735192,1278454
1734593,1734973,1279250
1734400,1735132,1278624
1734218,1734974,1277221
1734527,1734708,1276138
1734162,1734783,1274385
1734162,1734030,1270851
1734087,1733373,1268081
1734085,1733005,1267460
1734047,1733078,1265759
1734117,1732483,1264020
1734132,1732014,1263137
1734276,1731906,1262284
1733910,1731615,1261947
1733968,1731319,1261347
1734109,1731036,1261555
1734061,1730919,1261436
1733884,1730125,1261250
1734051,1729856,1261946
1734040,1729685,1261694
1734181,1729457,1262003
1734199,1729053,1262172
1734343,1728846,1262115
1734269,1728229,1262177
1734201,1727975,1262590
1734147,1727572,1262765
1734126,1727853,1262884
1733907,1727282,1263117
1733907,1726526,1262878
1733883,1725895,1263584
1733959,1725218,1263666
1734046,1724855,1263448
1734023,1723913,1263248
1734322,1723241,1263150
1733979,1722865,1263096
1734208,1722917,1262733
1734298,1723173,1262256
1734348,1722972,1262452
1734191,1722982,1262647
1733917,1722215,1262409
1733847,1721975,1261944
1733469,1721832,1262301
1733431,1721492,1261866
1732983,1720338,1262404
1731852,1718630,1263264
1732181,1718433,1262386
1732100,1717869,1263851
1732105,1717374,1264648
1731800,1717331,1265018
1731365,1717025,1265005
1731232,1716808,1265546
1731156,1716701,1266950
1730978,1716197,1267888
1730859,1716100,1267989
1730798,1715874,1268531
1730623,1715339,1268731
1730308,1715460,1268754
1730345,1715408,1269806
1730337,1715367,1270126
1730449,1715404,1271053
1730202,1715420,1270900
1730288,1715328,1271019
1730081,1715600,1271835
1730019,1715797,1272497
1729677,1716347,1271832
1729455,1716673,1271812
1729455,1717061,1272364
1729230,1717013,1273415
1729465,1717231,1273880
1729475,1717189,1273233
1729607,1717483,1273378
1729541,1717446,1273924
1729377,1717733,1273432
1729415,1718224,1274014
1729330,1718128,1275368
1729235,1718273,1274460
1729371,1718258,1275928
1729362,1717956,1276367
1728856,1717647,1276305
1729094,1718008,1276399
1729298,1718303,1276942
1729731,1718311,1276665
1729800,1718732,1276714
1729923,1719187,1277586
1729755,1719595,1277969
1729794,1720559,1278154
1730215,1721280,1279054
1730014,1722147,1279646
1729893,1722590,1279701
1729893,1722857,1280058
1729821,1722942,1279869
1730126,1723383,1279544
1730015,1723458,1278297
1730222,1723787,1276915
1730381,1723612,1275740
1730565,1724309,1274000
1730549,1725053,1269902
1731137,1724475,1267639
1731090,1724919,1266030
1731306,1725554,1265238
1731676,1727463,1264075
1732112,1728535,1263439
1732083,1730073,1263044
1732420,1730346,1263088
1732523,1730942,1263485
1732736,1731290,1263167
1732567,1731636,1263012
1732538,1731142,1263424
1732617,1730910,1263555
1732450,1730223,1264469
1732410,1729703,1263877
1732285,1728614,1264200
1731778,1727532,1264086
1731240,1726378,1264205
1730884,1725158,1264041
1730483,1722813,1263764
1730175,1723019,1264201
1729919,1721981,1265003
1730143,1721846,1264485
1729798,1721687,1264553
1729381,1721425,1264577
1729292,1721497,1264153
1729192,1721043,1264051
1729241,1721044,1264609
1729066,1721337,1264342
1728675,1720587,1264538
1728805,1720802,1264657
1728639,1720667,1263839
1728718,1720906,1262835
1728793,1720742,1263389
1728846,1721179,1264639
1728859,1720617,1264715
1728713,1720740,1265208
1728672,1720387,1265273
1728482,1720634,1265320
1728183,1720809,1265141
1728183,1720657,1266300
1728044,1720566,1266359
1727850,1720474,1266819
1728170,1720491,1266742
1728025,1720449,1267424
1727938,1719935,1268146
1727850,1720107,1268587
1727840,1719860,1269097
1727740,1719419,1269320
1727860,1719296,1269928
1727920,1718057,1269365
1727908,1717759,1269849
1728252,1718213,1270412
1728372,1718595,1271335
1728222,1719071,1271079
1728577,1719423,1272063
1728304,1718950,1271913
1728649,1719209,1271572
1728695,1719546,1271734
1728290,1719936,1272900
1728420,1719818,1272190
1728820,1720029,1273241
1728859,1719767,1273448
1729198,1720389,1274023
1729099,1720158,1273858
1729174,1719911,1273996
1728977,1719893,1274370
1729497,1720332,1274480
1729408,1720336,1274822
1729913,1720897,1274980
1730239,1720887,1276003
1729885,1720879,1275944
1730186,1720921,1275532
1730369,1721234,1276532
1730453,1721357,1277326
1730341,1721641,1277605
1730341,1721433,1278231
1730051,1721619,1278742
1730244,1721682,1279484
1730428,1721682,1279009
1730764,1721936,1280150
1730566,1721746,1279820
1730817,1722191,1280004
1731068,1722701,1279701
1731283,1723030,1278565
1731239,1723206,1277526
1731509,1723557,1276929
1731353,1723026,1275176
1731216,1722831,1273409
1731103,1723011,1271543
1731269,1722855,1269769
1731366,1722810,1267270
1731477,1722920,1266508
1731178,1722700,1265922
1731411,1722278,1265299
1731032,1722229,1265953
1731190,1722129,1266335
1730811,1721751,1266133
1730500,1721942,1266509
1730500,1721365,1266004
1730310,1721234,1265515
1730207,1720953,1265289
1730276,1721051,1265924
1730348,1720763,1265037
1730360,1720702,1264225
1730002,1720617,1264423
1729769,1720661,1263541
1729558,1720806,1263714
1729648,1720930,1262642
1729794,1720701,1262660
1729671,1720915,1261564
1729463,1720754,1261337
1729267,1720750,1260766
1729403,1720984,1260564
1729495,1721321,1259541
1729935,1721579,1259394
1729684,1721523,1258295
1729421,1721559,1257997
1729497,1721521,1258107
1729390,1721669,1257201
1729433,1721966,1256816
1729111,1722423,1256709
1728954,1722346,1256858
1728954,1721795,1256489
1728684,1722314,1257205
1728972,1722310,1257458
1729033,1722393,1258192
1729012,1722255,1259144
1728987,1722244,1258825
1729015,1722729,1258552
1728950,1722993,1258285
1729018,1723045,1257244
1729001,1723512,1255551
1729209,1723316,1255059
1729021,1723663,1255110
1728845,1723295,1254287
1728933,1723497,1251780
1729345,1723674,1250192
1729492,1723714,1249099
1729486,1723665,1247403
1729679,1724136,1246609
1729849,1724696,1245320
1729935,1724940,1244862
1729798,1725046,1243902
1729707,1725416,1243239
1729575,1725630,1241525
1729575,1725799,1241520
1729754,1725439,1240762
1729789,1726322,1240781
1729761,1726838,1239683
1730042,1726986,1238573
1730124,1726932,1237251
1730328,1727693,1236976
1730438,1728436,1235864
1730492,1728691,1235185
1730770,1729128,1234978
1730902,1729121,1234875
1730873,1728982,1233964
1730820,1729356,1234053
1731012,1729599,1234284
1731407,1729687,1233905
1731730,1730183,1233865
1731728,1730364,1234583
1731993,1730537,1234326
1731912,1730833,1235118
1732111,1731477,1235424
1732195,1731653,1235081
1731991,1732096,1234970
1731991,1731960,1235361
1732069,1731891,1234864
1732337,1731735,1234228
1732511,1731828,1233323
1732791,1731716,1232091
1732808,1731491,1228714
1732756,1731630,1227862
1732631,1732094,1224804
1732655,1732302,1222524
1733006,1731924,1220143
1732785,1732494,1218661
1732884,1732255,1217448
1732419,1732167,1216444
1732472,1732379,1214752
1732322,1732602,1214630
1732421,1732165,1214559
1732502,1732097,1213885
1732405,1731682,1214272
1732259,1731489,1214023
1732114,1731475,1213787
1732060,1731472,1213635
1731859,1731179,1214135
1731545,1731384,1213612
1731545,1731161,1213131
1731506,1730928,1213401
1731423,1730672,1214112
1731449,1730907,1214211
1731291,1730227,1214809
1730964,1730275,1214684
1731015,1730291,1215783
1730688,1730484,1215909
1730853,1730516,1215885
1730729,1730143,1215047
1730712,1730379,1215114
1730620,1729934,1214869
1730606,1730063,1214340
1730484,1729883,1213453
1730668,1730389,1213156
1730678,1730404,1212370
1730700,1730855,1212235
1730586,1730773,1212106
1730451,1731542,1212541
1730554,1731734,1212984
1730538,1732621,1213888
1730071,1732812,1214596
1730071,1733035,1215918
1729893,1732342,1216631
1730172,1732614,1218099
1730162,1732903,1218951
1730023,1732941,1219429
1730180,1732704,1219612
1729829,1733147,1220727
1730095,1733595,1221543
1730140,1733547,1222874
1730151,1733540,1222703
1730028,1733485,1222598
1730023,1733538,1224145
1730068,1733550,1224497
1730256,1734309,1225822
1730488,1734263,1225728
1730690,1734721,1226767
1730596,1734484,1226560
1730663,1734352,1226771
1730490,1734218,1226824
1730747,1734550,1227298
1730852,1734598,1227244
1730732,1735046,1227563
1730732,1734806,1227282
1730263,1735054,1227465
1730603,1735022,1227316
1730605,1735591,1228232
1730723,1735719,1228849
1730510,1735382,1229246
1730857,1735377,1229160
1730936,1735581,1229442
1731201,1736235,1230357
1731067,1736527,1230928
1731552,1736474,1230625
1731502,1736234,1231061
1731671,1736310,1231134
1732125,1735930,1231859
1732007,1735076,1230754
1732300,1734925,1229257
1732331,1734710,1227835
1732040,1733845,1224858
1731780,1733431,1223374
1731832,1733090,1220501
1731504,1732738,1218775
1731313,1732569,1217100
1730509,1731644,1215075
1730685,1731276,1214088
1730351,1731678,1213887
1730022,1731234,1213021
1729456,1730792,1213052
1729342,1730475,1212212
1729142,1729859,1212909
1729110,1729783,1212081
1728604,1729357,1212633
1728552,1728630,1211046
1728417,1727834,1211205
1728430,1727398,1210716
1728209,1726990,1211649
1728110,1725915,1211559
1727717,1725183,1212465
1727820,1724829,1212962
1727427,1724533,1213059
1727744,1724090,1214072
1727612,1723666,1214890
1727599,1723151,1215398
1727445,1722960,1215086
1727497,1723145,1216167
1727287,1723084,1216300
1727144,1723394,1216262
1726773,1723527,1217030
1726773,1723383,1217470
1726691,1723305,1216733
1726753,1723603,1217048
1726833,1723776,1216568
1726744,1724114,1216841
1726882,1724384,1216442
1726797,1725016,1217146
1726958,1725253,1216816
1726709,1725493,1217464
1726872,1725356,1217562
1727169,1725237,1217473
1726934,1724850,1217174
1726932,1725260,1219021
1727040,1725346,1219503
1727312,1725289,1219521
1727375,1725305,1220390
1727457,1725466,1220203
1727472,1725230,1221065
1727368,1725102,1220683
1727660,1725558,1221614
1727501,1726319,1223096
1727276,1726347,1223881
1727276,1726565,1224923
1727483,1726626,1226116
1727121,1726572,1227743
1727576,1726976,1228777
1727767,1726731,1229126
1727977,1726624,1228938
1728177,1727325,1230400
1728107,1727931,1231690
1728344,1728042,1231743
1728484,1728813,1231856
1728577,1728621,1232732
1728519,1728744,1233641
1728801,1728965,1234127
1728898,1729327,1235830
1729060,1729085,1235997
1729329,1729431,1235686
1729599,1729371,1237033
1729470,1729195,1237022
1729572,1729057,1237449
1729994,1729171,1237046
1729565,1729272,1236070
1729625,1729725,1234727
1729523,1729353,1233246
1729523,1729490,1232042
1729839,1729173,1230148
1730094,1729425,1228272
1730023,1728975,1226661
1730017,1728527,1225749
1729960,1727603,1224749
1729816,1727068,1224432
1729491,1726856,1225686
1729345,1725835,1225926
1729174,1725818,1225256
1729162,1724774,1225761
1728938,1724487,1226767
1728604,1724187,1226821
1728463,1724132,1227044
1728440,1724044,1226779
1728463,1723971,1226947
1728291,1723680,1227487
1728306,1723319,1227690
1727952,1722852,1228093
1727722,1723333,1228922
1727413,1723214,1229132
1727077,1723272,1228714
1726932,1723273,1228904
1726932,1723467,1229468
1726905,1723179,1230378
1726747,1723521,1230079
1726842,1723304,1230473
1726859,1723316,1229019
1726497,1723323,1229152
1726249,1723385,1229019
1726090,1723673,1228487
1725998,1723869,1228500
1726048,1724009,1228370
1725781,1723397,1229587
1725678,1723443,1230539
1725566,1723548,1231410
1725520,1723817,1232152
1725786,1723376,1232814
1725740,1723498,1233590
1725446,1723282,1233575
1725402,1723576,1234540
1725430,1723673,1235176
1725429,1724329,1236018
1725138,1724344,1236692
1724988,1724798,1236884
1724988,1724455,1237854
1724936,1724377,1239432
1724884,1723748,1240445
1724895,1723391,1239650
1724992,1722897,1240815
1725265,1723041,1241677
1724880,1722653,1242326
1724498,1722638,1242805
1724481,1722546,1243700
1724707,1722848,1244375
1724583,1722432,1244593
1724529,1722684,1245574
1724599,1722528,1246007
1724535,1722913,1246434
1724291,1723024,1247664
1724486,1723284,1247348
1724812,1724076,1247911
1724896,1723949,1249507
1724474,1723965,1250585
1724853,1724698,1250908
1724756,1724401,1251010
1725047,1724908,1251251
1725414,1724903,1251622
1725062,1725782,1252268
1724813,1725885,1253106
1725129,1725985,1253294
1725063,1726003,1253178
1725468,1726242,1252774
1725029,1726269,1251914
1725451,1725778,1251060
1725173,1725617,1249363
1725435,1726048,1247786
1725455,1726057,1247185
1725975,1726370,1245973
1726078,1726341,1245731
1726194,1727487,1245774
1726562,1727555,1245540
1726444,1727510,1245717
1726656,1727693,1246016
1727128,1727751,1246997
1726804,1728029,1247685
1726926,1728263,1248976
1727182,1728301,1248863
1726854,1728131,1250111
1726943,1728592,1249425
1726705,1728204,1249881
1726655,1727780,1251060
1726074,1727316,1251535
1726007,1726789,1251875
1725609,1726117,1252857
1725045,1725295,1253739
1724831,1724290,1254201
1724678,1724581,1254480
1724322,1724322,1253892
1724494,1724268,1254040
1724031,1724136,1254505
1723780,1724163,1254473
1723621,1723981,1254071
1723504,1723862,1254119
1723611,1723230,1254117
1723428,1723461,1254835
1723393,1722906,1254193
1723071,1722723,1255640
1722993,1722728,1255408
1722928,1722686,1256241
1723188,1722382,1255997
1723126,1722142,1255873
1723055,1721831,1255841
1723107,1721814,1256299
1722759,1722069,1256497
1722751,1721902,1257370
1722440,1722203,1256401
1722128,1721966,1257469
1722322,1722442,1257365
1722348,1722516,1258768
1722448,1722316,1259406
1722445,1722857,1259686
1722078,1722587,1259363
1721923,1722455,1259631
1721795,1722593,1259311
1722030,1722106,1259595
1721999,1722245,1259016
1721762,1721998,1259413
1721814,1721375,1259990
1721721,1721595,1259249
1721867,1721846,1260198
1722177,1721932,1259952
1722287,1722130,1259784
1722443,1722115,1259590
1722467,1722317,1259580
1722512,1722431,1259322
1722360,1722873,1258789
1722373,1723091,1258677
1722377,1723168,1259107
1722377,1723176,1258990
1722190,1723336,1259555
1722216,1723108,1258813
1722495,1723340,1259444
1722653,1723459,1259396
1722585,1723203,1259004
1722674,1723530,1258076
1722839,1724152,1257381
1722823,1724628,1255806
1723251,1724894,1250651
1723199,1725194,1249284
1723344,1725106,1246702
1723287,1725319,1244841
1723195,1725510,1243871
1723390,1725792,1242925
1723971,1726235,1242153
1724252,1726641,1241752
1724344,1726788,1240850
1724610,1727044,1241166
1724516,1727316,1240768
1724373,1727641,1240291
1724626,1728090,1240908
1724597,1728176,1241017
1724597,1728109,1240753
1724698,1727878,1241979
1724942,1727823,1241879
1725100,1728119,1242627
1725226,1728120,1242512
1725269,1728182,1242863
1725615,1728637,1242926
1725798,1728921,1242994
1726055,1729022,1243843
1726052,1729227,1244472
1726162,1729111,1243827
1726102,1728920,1244481
1726017,1729020,1243732
1726057,1728777,1243970
1726178,1728628,1243894
1726172,1728459,1244053
1726167,1728616,1243719
1726091,1728045,1243575
1725854,1727951,1244147
1725665,1728129,1244124
1725697,1728265,1244141
1725251,1728210,1245299
1725251,1728188,1245719
1725011,1727808,1246045
1724857,1727582,1246531
1724793,1727562,1247003
1724678,1727787,1247633
1724883,1727157,1247406
1724255,1727183,1247339
1724131,1727407,1247648
1724174,1727253,1248540
1723972,1727442,1249642
1723889,1727208,1249774
1723871,1726983,1250871
1723645,1726830,1251003
1723727,1727982,1251557
1723163,1728078,1252174
1722984,1728295,1252617
1722961,1728281,1252212
1723023,1728552,1252759
1722874,1728783,1252459
1722750,1729149,1252900
1722626,1729169,1254049
1723025,1729506,1254168
1722916,1729153,1254389
1722830,1729425,1254142
1722712,1728971,1254218
1722534,1729244,1253595
1722856,1729441,1254094
1723042,1729720,1253978
1723239,1729636,1253263
1723305,1729416,1253723
1723131,1729304,1253539
1723318,1729752,1253581
1723542,1729821,1254121
1723732,1730355,1254086
1723280,1730450,1254289
1723164,1730662,1253769
1723690,1730919,1254145
1723882,1731010,1254210
1723680,1730895,1253790
1724076,1731556,1253795
1723658,1731308,1253235
1723607,1731536,1250487
1723796,1731458,1249202
1723921,1731558,1247004
1723976,1731688,1245202
1724230,1731960,1242984
1723784,1731722,1240417
1724047,1731941,1238980
1724054,1732117,1237460
1724583,1732553,1237345
1724637,1732749,1236750
1724943,1733026,1236529
1724613,1732483,1235968
1724846,1732882,1235465
1724988,1733140,1235982
1725141,1733442,1236732
1724774,1733362,1236777
1724774,1733249,1237438
1724951,1733010,1236638
1724943,1733260,1237441
1725084,1733312,1237981
1725153,1733367,1238274
1725538,1732949,1238237
1725627,1733179,1238502
1725471,1733652,1239205
1725701,1733913,1239512
1726090,1733940,1240361
1725835,1734025,1240099
1726067,1733915,1239957
1725962,1733633,1239349
1726139,1734031,1239883
1726189,1733972,1239475
1726649,1733752,1239540
1726498,1733659,1238933
1726455,1733307,1238437
1726198,1733019,1238260
1726312,1733051,1237550
1725796,1733500,1237085
1725866,1733538,1238813
1725866,1733187,1237896
1725416,1733312,1237447
1725470,1732997,1238424
1725700,1733420,1238810
1725570,1732965,1239149
1724955,1732836,1240001
1725012,1732660,1239661
1724825,1732566,1239489
1724645,1733012,1239445
1724710,1732683,1240472
1724412,1732721,1240785
1724303,1732178,1241661
1724071,1731610,1241697
1724065,1731788,1241763
1724112,1731835,1241665
1724504,1731691,1241833
1724568,1731805,1242890
1724234,1731754,1243008
1724343,1731864,1242630
1724195,1732002,1243452
1724184,1731951,1243542
1724024,1732130,1243648
1723658,1732635,1244617
1723363,1732120,1244462
1723363,1731891,1245013
1723724,1731721,1245193
1723502,1731817,1245552
1723448,1731331,1246642
1723335,1730964,1246493
1723161,1731503,1247103
1723128,1731048,1247366
1723213,1731207,1246835
1723149,1731397,1247078
1723186,1731331,1247305
1722766,1730920,1247632
1722744,1731226,1247631
1723001,1730942,1248045
1723566,1731022,1248284
1723239,1731043,1248668
1723498,1730910,1248554
1723348,1730915,1248789
1723385,1731248,1249296
1723405,1731149,1248828
1723533,1731456,1248744
1723071,1731685,1247517
1723071,1731494,1245681
1723136,1731614,1243792
1723125,1731499,1241832
1723392,1731354,1240591
1722991,1731119,1238900
1723263,1730983,1238351
1723435,1731478,1238635
1723447,1731830,1238997
1723561,1731673,1238769
1723669,1732223,1239595
1723637,1732110,1240165
1723601,1731886,1242237
1723592,1731980,1242988
1723950,1732107,1243689
1724095,1732319,1244443
1724271,1732450,1245380
1724418,1732755,1245815
1724451,1732649,1245882
1724243,1733083,1245583
1724655,1733161,1246430
1724382,1733519,1247095
1724409,1733577,1247722
1724878,1733558,1248933
1724988,1733698,1249050
1725132,1733906,1249582
1725388,1733989,1248784
1725284,1734254,1249547
1725121,1734168,1248387
1725146,1734346,1248702
1725387,1734277,1248433
1725477,1734495,1247279
1725526,1734357,1246797
1725592,1734144,1246189
1725502,1733798,1246186
1725462,1734255,1246701
1725690,1733883,1246240
1725842,1734084,1246526
1725645,1733464,1246526
1725556,1733091,1246999
1725373,1732646,1246435
1725394,1732660,1247344
1725253,1732402,1248241
1724757,1732476,1249125
1724341,1732119,1250647
1724341,1732125,1252163
1724362,1731683,1253911
1724180,1731886,1254837
1724181,1731410,1255529
1723991,1731054,1256696
1723850,1730878,1257396
1723561,1730736,1258080
1723266,1730920,1259398
1723227,1730456,1260621
1723231,1730464,1261184
1723064,1730076,1261638
1722694,1730142,1262567
1722643,1730177,1263508
1722567,1730247,1263928
1722816,1729851,1264092
1722884,1730410,1263935
1722535,1730111,1264020
1722638,1730113,1265266
1722446,1730052,1266165
1722150,1730285,1266658
1722174,1730177,1267031
1721799,1729905,1267829
1721799,1729598,1267548
1721454,1729637,1268779
1721384,1729442,1269783
1721351,1729843,1269959
1721609,1729562,1270666
1721321,1729503,1270368
1721055,1729670,1270971
1721046,1730080,1272066
1721031,1729680,1271997
1721067,1729562,1271978
1720927,1729831,1271931
1721036,1729058,1272248
1720727,1729013,1271432
1720778,1728900,1270925
1720878,1729073,1270026
1721007,1728569,1267021
1721191,1728564,1265418
1721215,1728331,1262681
1720870,1728402,1261955
1721234,1728550,1260521
1721167,1728994,1258986
1721068,1729258,1257993
1720817,1729541,1258280
1720605,1729553,1258003
1721167,1729870,1258344
1721173,1729182,1258340
1721124,1729536,1258717
1721169,1729467,1259528
1721454,1729885,1260481
1721195,1729772,1260102
1721018,1729994,1261002
1721069,1729568,1261567
1721242,1729568,1262107
1721169,1729183,1262372
1721575,1729406,1262055
1721296,1729253,1263310
1721627,1729705,1263832
1721910,1730224,1263803
1722102,1730304,1263940
1721778,1730065,1263576
1722024,1729611,1264255
1722426,1729722,1263919
1722340,1730299,1262872
1722107,1730100,1262025
1722307,1730043,1261278
1722396,1729923,1261441
1722546,1729836,1260909
1722327,1729504,1260315
1722192,1729079,1260909
1721745,1728437,1261242
1721685,1728407,1261674
1721256,1727888,1262369
1721202,1726682,1262970
1720313,1725435,1263508
1719731,1724421,1265126
1718740,1722214,1265077
1718685,1722026,1265840
1718292,1721377,1266314
1717876,1720969,1268012
1717374,1719739,1268138
1717223,1718511,1269082
1716913,1716663,1270204
1716770,1715151,1270883
1716023,1712949,1271105
1715859,1710298,1271544
1715429,1707670,1272169
1715082,1705158,1272324
1714790,1702065,1273056
1714546,1698547,1273674
1713882,1693999,1275138
1713319,1688689,1275769
1712747,1683950,1275376
1712218,1680065,1276173
1711587,1676558,1276590
1711004,1673936,1276881
1711004,1671593,1276650
1709949,1669645,1277935
1709418,1667536,1278327
1708941,1666300,1278039
1708880,1665285,1277945
1708038,1664357,1278341
1707728,1663461,1279569
1706478,1660327,1279639
1706091,1659079,1279526
1705634,1657648,1279580
1705296,1656330,1279841
1704687,1654762,1280772
1704386,1653160,1281317
1703983,1652134,1280349
1703662,1651187,1279615
1702894,1649318,1278909
1701544,1644864,1277654
1700133,1639644,1274471
1699215,1634503,1271487
1698586,1632925,1271487
1698360,1630758,1270691
1697571,1629268,1269666
1697161,1627890,1269321
1696704,1626749,1268924
1696575,1625565,1269584
1696219,1624189,1269533
1695878,1622100,1269814
1695612,1619221,1269675
1694965,1616268,1270682
1694616,1613188,1271043
1694370,1610165,1271402
1694077,1607348,1271533
1693710,1604466,1271494
1693345,1601883,1271728
1693064,1599555,1272561
1692599,1597691,1272833
1692314,1596263,1273574
1691868,1594891,1273551
1691868,1593163,1273930
1690881,1586418,1274024
1690677,1583868,1274030
1690619,1581685,1273643
1690126,1579352,1273397
1689553,1577164,1273377
1689491,1575139,1272761
1689452,1572979,1273292
1689183,1571027,1273550
1688776,1568795,1273666
1688412,1566151,1273014
1687929,1562979,1273084
1687578,1559974,1272823
1687309,1556748,1273829
1687048,1553050,1274790
1686411,1549772,1275329
1685807,1546330,1275156
1685069,1543105,1275421
1684444,1540050,1275378
1684176,1536746,1276801
1683446,1533311,1277595
1682737,1530056,1278148
1682737,1526607,1277756
1682381,1523666,1279224
1681664,1520686,1279903
1681280,1517638,1279849
1680737,1514041,1280480
1679990,1510240,1280776
1678697,1502935,1281105
1678130,1499849,1281284
1677059,1489962,1281232
1675715,1481476,1282325
1674665,1473895,1282970
1673760,1465826,1283458
1672872,1459042,1283361
1671954,1454523,1284309
1671954,1453524,1284589
1671645,1452752,1285092
1671107,1452407,1285132
1670965,1451487,1285723
1671171,1450161,1286399
1670925,1448339,1286412
1670926,1446761,1287095
1670435,1444463,1287215
1670087,1442448,1286863
1669127,1438015,1287123
1669340,1438746,1288029
1669732,1442073,1288606
1669870,1448106,1288632
1670224,1450906,1289024
1670647,1453696,1289283
1670973,1456822,1289471
1671232,1460130,1290505
1671289,1463485,1290661
1671550,1466797,1290205
1671681,1470677,1291047
1672025,1474853,1290430
1672332,1479636,1289568
1672786,1484638,1288119
1673035,1489398,1286759
1673216,1494327,1284647
1673696,1498954,1283190
1674281,1502643,1281697
1674900,1505442,1280366
1675357,1507841,1279535
1675703,1508905,1279322
1676064,1510298,1278220
1676254,1511483,1277330
1676482,1512846,1277457
1676589,1514902,1277602
1677064,1519275,1277607
1677589,1520659,1278494
1677736,1521653,1278278
1678077,1523211,1278863
1678371,1524309,1278818
1678202,1526101,1278561
1678592,1527478,1278936
1678720,1529285,1279125
1679017,1531909,1279810
1679219,1535154,1278905
1679838,1538671,1279920
1679793,1542884,1280912
1680442,1547756,1280579
1680935,1551757,1281242
1681332,1555410,1280492
1681742,1558294,1279824
1681730,1560778,1279318
1681703,1563157,1279693
1682080,1565233,1279928
1681804,1567340,1279501
1681901,1568980,1278800
1681349,1569464,1278447
1681349,1568869,1279141
1681100,1567399,1278806
1680676,1564856,1279503
1680578,1562061,1279944
1680400,1559704,1279848
1680189,1557492,1280015
1678969,1553742,1280660
1678663,1551693,1281323
1678295,1548918,1282128
1678137,1546155,1282534
1677585,1543038,1282219
1677354,1540298,1283434
1676690,1537761,1283149
1676819,1535957,1284174
1676461,1534556,1284347
1676775,1534197,1285043
1676554,1534899,1285458
1676617,1536693,1285761
1676170,1538562,1286069
1676588,1541318,1286753
1676642,1544096,1286573
1676793,1547588,1287676
1676400,1550794,1287602
1676400,1554576,1288170
1676588,1558535,1288353
1676697,1563477,1289242
1677120,1568899,1288976
1677124,1574431,1289078
1677733,1579862,1289255
1678560,1591277,1290166
1679239,1597019,1290476
1679723,1601922,1290235
1679844,1607093,1290801
1680218,1610844,1291232
1680587,1614080,1291159
1680762,1617060,1291931
1681433,1619629,1292687
1681856,1622005,1292747
1682506,1624716,1292406
1682918,1627207,1292805
1683147,1629358,1293292
1683091,1632052,1294222
1683852,1634710,1294218
1684145,1637161,1294356
1684389,1639753,1295109
1684493,1642201,1294489
1684493,1644225,1295543
1685161,1646138,1295635
1685501,1648439,1296057
1685938,1650171,1295954
1686300,1652055,1295797
1686970,1656055,1295729
1687622,1658322,1294627
1687942,1659716,1293599
1688411,1661375,1292124
1688602,1662479,1289762
1688853,1663647,1287069
1689071,1665317,1285718
1689421,1666647,1284271
1690071,1667208,1283253
1690583,1668637,1281876
1690724,1668928,1280939
1690780,1668782,1280444
1690977,1668808,1280861
1691226,1668654,1280725
1691431,1668494,1280820
1691134,1669147,1281806
1691134,1669327,1281822
1691370,1669312,1282465
1691429,1669417,1283028
1691730,1669843,1282949
1692013,1669886,1283479
1692021,1669404,1283304
1692237,1669289,1284322
1692675,1669562,1284554
1692579,1670145,1284803
1692889,1670538,1284674
1692785,1670959,1284540
1692894,1670286,1285059
1692613,1669569,1285697
1692395,1668819,1285631
1692014,1667288,1285386
1691687,1665633,1284535
1690979,1663711,1284142
1690219,1662145,1284084
1689458,1660728,1284162
1688658,1659901,1283717
1688245,1659213,1283779
1687514,1658975,1282951
1686700,1658749,1283664
1686700,1658707,1283282
1686273,1658438,1284004
1685913,1658839,1284648
1685688,1658567,1284709
1685374,1658257,1285125
1684998,1658067,1285639
1684039,1657669,1286496
1683886,1657858,1287064
1683680,1657427,1287763
1683442,1657283,1287679
1683216,1656740,1287932
1683120,1656327,1288700
1682828,1656746,1289589
1683165,1656643,1289995
1683347,1657214,1290510
1683335,1657994,1290471
1683199,1658837,1290454
1682984,1659947,1291585
1682631,1661798,1292642
1682763,1663038,1292723
1683106,1665058,1292558
1682494,1666762,1292639
1682494,1668295,1293274
1682712,1669770,1292815
1682660,1670956,1293298
1683049,1671662,1293457
1682956,1671815,1293756
1683082,1670955,1294563
1683415,1669692,1294552
1683592,1668558,1295322
1683588,1667147,1295487
1683775,1663492,1296313
1683573,1662520,1295495
1684059,1665821,1296406
1684458,1671520,1296125
1685136,1676807,1296622
1685641,1677862,1297768
1686136,1678456,1297978
1686462,1678730,1297507
1686650,1678919,1297775
1686745,1678040,1298183
1686910,1676837,1299301
1687214,1675880,1299140
1687459,1674947,1299473
1687381,1674066,1298986
1687214,1672702,1299899
1687261,1672135,1301084
1687224,1671735,1300677
1687477,1671950,1301232
1687686,1672674,1301179
1687766,1673426,1301630
1688100,1674170,1301971
1688125,1675663,1303222
1688337,1676980,1302105
1688445,1678947,1302500
1688546,1680139,1301677
1688546,1680720,1300136
1688651,1680972,1298132
1688969,1680948,1296857
1689424,1680697,1294692
1689456,1680124,1292987
1690056,1678653,1291260
1690188,1675572,1290359
1690147,1674513,1289205
1689915,1672605,1288555
1690042,1671041,1287613
1689671,1669268,1287745
1689337,1667074,1287392
1688399,1665090,1287858
1688098,1664179,1288856
1687296,1663342,1288518
1687317,1663081,1289612
1686541,1662860,1290460
1686108,1663156,1291236
1685565,1663510,1291764
1685226,1664458,1292478
1685078,1664585,1292464
1684287,1665343,1293557
1683885,1664909,1293523
1683885,1665063,1294329
1683828,1664203,1293440
1683661,1663440,1294996
1683544,1661953,1294094
1683024,1659797,1293767
1682301,1657345,1293951
1681954,1655768,1293577
1681412,1653042,1293486
1681297,1651003,1293800
1680722,1648859,1293488
1680665,1647927,1292950
1680406,1646863,1292779
1680173,1646605,1292508
1679795,1647551,1292965
1679856,1648976,1293622
1680026,1650288,1293954
1680263,1652281,1294306
1680159,1653849,1295240
1680564,1658377,1295288
1680729,1659938,1295789
1680862,1657849,1295371
1680994,1656537,1295963
1681294,1655350,1297020
1680968,1653794,1297074
1680732,1652268,1298651
1680557,1651124,1298670
1680717,1650234,1298414
1680781,1650109,1299760
1680991,1650532,1299702
1680790,1650762,1300746
1680902,1651661,1301054
1680863,1652899,1300805
1681516,1654178,1301228
1682059,1655360,1301433
1682247,1656277,1301830
1682574,1656553,1302176
1682916,1657352,1302712
1682857,1658083,1303104
1683468,1658464,1302598
1683314,1658654,1302717
1683267,1658238,1303321
1683267,1656958,1303175
1683497,1655592,1303634
1683640,1653649,1304388
1683671,1651640,1304462
1683704,1649637,1304114
1683535,1647715,1304754
1683573,1646382,1305420
1683614,1646659,1306012
1683500,1647067,1305907
1683771,1648039,1306330
1684037,1649623,1306354
1683983,1650440,1306772
1684479,1652183,1306433
1684553,1653631,1306881
1685139,1654674,1307742
1685638,1655859,1307362
1685856,1656834,1307476
1686072,1657020,1308526
1686455,1657042,1309455
1686572,1656589,1308657
1686691,1655731,1307772
1686593,1654589,1307488
1686593,1652908,1306434
1686409,1651007,1305578
1686638,1649309,1303699
1686382,1647705,1301163
1686321,1646516,1299561
1686522,1645793,1297723
1686561,1647766,1295832
1686867,1649955,1294891
1686877,1652378,1293102
1687179,1655382,1293518
1687073,1658031,1293175
1687145,1660281,1293062
1686949,1662113,1293980
1686940,1663446,1293682
1686884,1664124,1294109
1687091,1664371,1294505
1687164,1664293,1294784
1686917,1663198,1294992
1686604,1662121,1295348
1686164,1660656,1295676
1685905,1658895,1295955
1685507,1656765,1296645
1685507,1654550,1296958
1684986,1652289,1297681
1684795,1650413,1298110
1684590,1649103,1298316
1684174,1648081,1297190
1683774,1647611,1296924
1683471,1648254,1296639
1683327,1651225,1297719
1683472,1653239,1297315
1683601,1655489,1296892
1683568,1657682,1295874
1683975,1659143,1296309
1683949,1660018,1296180
1684179,1661153,1295914
1684438,1661429,1295648
1684820,1661496,1295357
1684712,1660800,1295979
1684557,1659990,1296080
1684702,1658867,1296739
1684594,1658052,1297325
1684576,1656291,1298338
1684276,1655124,1298132
1683950,1653755,1299026
1683745,1651860,1299730
1683714,1652783,1300104
1684039,1653926,1300720
1684197,1655514,1300396
1684117,1657173,1302227
1684332,1658907,1301855
1684590,1660722,1302794
1685135,1662306,1303196
1685496,1664059,1303202
1685516,1665116,1304141
1685868,1666074,1304535
1685860,1666470,1304541
1686490,1666888,1304913
1686967,1666752,1304542
1687412,1666367,1304905
1687674,1665720,1305713
1687848,1664615,1306480
1687792,1663649,1306651
1687605,1662510,1306643
1687647,1661742,1306647
1687363,1661427,1306368
1687363,1661310,1307444
1687249,1661758,1307493
1687466,1662618,1307659
1687562,1664706,1307727
1687810,1666405,1307578
1688117,1668494,1307759
1689039,1673362,1308469
1689158,1675700,1308389
1689685,1677780,1309163
1690147,1678958,1309117
1690551,1680386,1308992
1690869,1680282,1309045
1691000,1680204,1309642
1691559,1679956,1310095
1691847,1679687,1310081
1691947,1678599,1309892
1692393,1677547,1310584
1692507,1676224,1311025
1692776,1675597,1310496
1692831,1675347,1309892
1693049,1675287,1307419
1692747,1675755,1305801
1692728,1676101,1303517
1692728,1676771,1300322
1692888,1677453,1298349
1693314,1678302,1295576
1693309,1679278,1293668
1693713,1679721,1291887
1693801,1680619,1291183
1694553,1682782,1291000
1694736,1683321,1290293
1695036,1683550,1289529
1694887,1683817,1290187
1694729,1683548,1290102
1694440,1682522,1288938
1693989,1682083,1290187
1693879,1681041,1290006
1693713,1680490,1289885
1693454,1679504,1289629
1693137,1678760,1289819
1692607,1677561,1290407
1691862,1677236,1290018
1691358,1678442,1290501
1691426,1679680,1290963
1691542,1680150,1290819
1691791,1681141,1290902
1691679,1681456,1290455
1691477,1682171,1290617
1691005,1681651,1291528
1691235,1680964,1290675
1691141,1679434,1289936
1691367,1678126,1289625
1690945,1676070,1290705
1690968,1673876,1290285
1690505,1671317,1289143
1690366,1669679,1288757
1689873,1667887,1289185
1690110,1666982,1289550
1689849,1666244,1289737
1689663,1665822,1289774
1689568,1665149,1290103
1689242,1665724,1290362
1689206,1665911,1290797
1689269,1666292,1292119
1688899,1666759,1292135
1688899,1666777,1293185
1688927,1666579,1292827
1688992,1666700,1293394
1689158,1666285,1294027
1689205,1665907,1295306
1689258,1664230,1296004
1689010,1660032,1296421
1688811,1656536,1295714
1688526,1652514,1296829
1688524,1648129,1297057
1687778,1643716,1297788
1687738,1639762,1298038
1687146,1636516,1298254
1687160,1634625,1298219
1686828,1632834,1298173
1686909,1631837,1299239
1686491,1630444,1299703
1686433,1629095,1300085
1686015,1627867,1299152
1685892,1626363,1299817
1685486,1624855,1300159
1685231,1623347,1300283
1684609,1621411,1299975
1684609,1619313,1299576
1684721,1616972,1300475
1684587,1614513,1300717
1684375,1612025,1301212
1684098,1609382,1302255
1684051,1606875,1301797
1683709,1605610,1302225
1683716,1602802,1302701
1683527,1601666,1303193
1683463,1599739,1302830
1683500,1597178,1303770
1683224,1594625,1303411
1682780,1591904,1303901
1683000,1588896,1303988
1683027,1586359,1305006
1683056,1583320,1304786
1683001,1579830,1305238
1683382,1575304,1305801
1682873,1571872,1305595
1683529,1568864,1305888
1683774,1566400,1305614
1683916,1563826,1304426
1683916,1560384,1303975
1683911,1557348,1302707
1684391,1554199,1300376
1684668,1551038,1298532
1685008,1547401,1295559
1685033,1544112,1293315
1685232,1541572,1290918
1685124,1535628,1288734
1685145,1533071,1286831
1684833,1530790,1285779
1684507,1529167,1285377
1683877,1527915,1284821
1683421,1527004,1285072
1682864,1526288,1284867
1682587,1525334,1285373
1682294,1524114,1285327
1681956,1522815,1285983
1681523,1521263,1285280
1681531,1519396,1286608
1681644,1517575,1287126
1681240,1515372,1286501
1680826,1513139,1286975
1680497,1510755,1287376
1680497,1508310,1287670
1680224,1505695,1287406
1680238,1503550,1287796
1679907,1501053,1287308
1679609,1498553,1287402
1679312,1495922,1287511
1678071,1491732,1287229
1677603,1489567,1287208
1677457,1487270,1286799
1676990,1485577,1287416
1676677,1484369,1287409
1676358,1482666,1287365
1676100,1481527,1287745
1676125,1480231,1287258
1676318,1478864,1287462
1676582,1477541,1287673
1676539,1476362,1287155
1676549,1475280,1286865
1676574,1474799,1287966
1676399,1474093,1288915
1676567,1473237,1289600
1676388,1471811,1290115
1676042,1469727,1290588
1676042,1467394,1291303
1675878,1464578,1291240
1676194,1462170,1291269
1676103,1459448,1292132
1675982,1457399,1292391
1675722,1455677,1292543
1675096,1454627,1292218
1674831,1455010,1292666
1674874,1456069,1293529
1675070,1457595,1292972
1675345,1459054,1292887
1675212,1460419,1292175
1675541,1461976,1292075
1675681,1463549,1292315
1676134,1464476,1291643
1676732,1464988,1291576
1676943,1464020,1292065
1677086,1462228,1291745
1676992,1460418,1291966
1676828,1458594,1292131
1676563,1456867,1292057
1676171,1455343,1292629
1676171,1453949,1292274
1675951,1452592,1292126
1675758,1451343,1292780
1675703,1449926,1293203
1675741,1448215,1293767
1675616,1446708,1293561
1675191,1445737,1294514
1675230,1446805,1294580
1675379,1449506,1295249
1675744,1453376,1295007
1675930,1458129,1295446
1676381,1462104,1295494
1676632,1464875,1295269
1677199,1467325,1295768
1677527,1468498,1296537
1677612,1468563,1297248
1678180,1467207,1297888
1678250,1464777,1298299
1678224,1461919,1298032
1678007,1459377,1299118
1678013,1456753,1299866
1677474,1454849,1300292
1677205,1453090,1300140
1677205,1451945,1299611
1676897,1450947,1300869
1676865,1450846,1299951
1676883,1452431,1298880
1677167,1454644,1298205
1677042,1457997,1295613
1678210,1465877,1293598
1678481,1469277,1290892
1678946,1471172,1288580
1679076,1472240,1286616
1679600,1471886,1284468
1679091,1470521,1282969
1679253,1468462,1281484
1679272,1465841,1280511
1679306,1462598,1279664
1679157,1459035,1279268
1678761,1454520,1279196
1678328,1450318,1279798
1677956,1446279,1280397
1676955,1442737,1280622
1676426,1439991,1281219
1675883,1438064,1281885
1675883,1436152,1281718
1675507,1434438,1282217
1675155,1432587,1282196
1674813,1431680,1282247
1674500,1430895,1282494
1674523,1429816,1282234
1674284,1428473,1282753
1674063,1428235,1282576
1673950,1427384,1282618
1674087,1425873,1281879
1674077,1423507,1283210
1674239,1420474,1282922
1673680,1417456,1282559
1674063,1414960,1282657
1673973,1412641,1282324
1674153,1410418,1282131
1673842,1408407,1282034
1673666,1406792,1281889
1673064,1406005,1281813
1672745,1405819,1282563
1672171,1406892,1281845
1671837,1409335,1282312
1671533,1414902,1282597
1671533,1423761,1283757
1672111,1433209,1283646
1672318,1443152,1285451
1673038,1453158,1285391
1673705,1461722,1286440
1674547,1469013,1286318
1676499,1476625,1287204
1677266,1477844,1288209
1677491,1477735,1288396
1678113,1477566,1288854
1678273,1476940,1289729
1678404,1475566,1290081
1678384,1474885,1290987
1678992,1474114,1291511
1679137,1473763,1291423
1679668,1473864,1291119
1679546,1475112,1292337
1680365,1476262,1292969
1680074,1477947,1292997
1680510,1479833,1293466
1680687,1481746,1293193
1681100,1483131,1293890
1681100,1484202,1293830
1681093,1485096,1293160
1681132,1485576,1293938
1681475,1485681,1293923
1681685,1485350,1293874
1681956,1484738,1294614
1682427,1484343,1294551
1682443,1484018,1295877
1682633,1483614,1296393
1682728,1483676,1296215
1683026,1484681,1294919
1682923,1486098,1295916
1683071,1487865,1296285
1683170,1489506,1297048
1683563,1490857,1297248
1684168,1492881,1297411
1684588,1494676,1297263
1684592,1496979,1298276
1684982,1499329,1298338
1685101,1501876,1298255
1685210,1503775,1298773
1685240,1505276,1298619
1685240,1505638,1299458
1685538,1505506,1300193
1685709,1504526,1300456
1685982,1503414,1299959
1685986,1501896,1300411
1686158,1499931,1300217
1685596,1496471,1300039
1685852,1495128,1299890
1685499,1493794,1299244
1685581,1493107,1297213
1685264,1492721,1294997
1685357,1493339,1293248
1684969,1493736,1291373
1685277,1494331,1288782
1685267,1495060,1285758
1685564,1496432,1283304
1685261,1497601,1281727
1685268,1499082,1280354
1684924,1504218,1279127
1685098,1504161,1278871
1685006,1500863,1279078
1685105,1500292,1280117
1684804,1499677,1280187
1684581,1499081,1281548
1684233,1498628,1282172
1684914,1498899,1282656
1684732,1499831,1282479
1684872,1500390,1282851
1684749,1501293,1283279
1684743,1502314,1283042
1684801,1503397,1283537
1685352,1504625,1284546
1685575,1505483,1284341
1685319,1506502,1284930
1685442,1506811,1285222
1685366,1506950,1285206
1685453,1506126,1285152
1685560,1505224,1285047
1685262,1503806,1285667
1685262,1501988,1286329
1685156,1500518,1285290
1685234,1498835,1285097
1684886,1497161,1284917
1684725,1494778,1284473
1684956,1492637,1284551
1684686,1490792,1284527
1684091,1488947,1284303
1684113,1486963,1284559
1683828,1485017,1285246
1683547,1483339,1285901
1683341,1481737,1285598
1683073,1479882,1286713
1682828,1478292,1288073
1682838,1477030,1287706
1682820,1475986,1288674
1682849,1475292,1289794
1682835,1474769,1289439
1682735,1474578,1291054
1682834,1474721,1291345
1682807,1475623,1291740
1682722,1476759,1291474
1682319,1478125,1291722
1682298,1479094,1292661
1682298,1480086,1292742
1682548,1480936,1293672
1682719,1481566,1294218
1682884,1482332,1294212
1682922,1483382,1294237
1682980,1485169,1295018
1683655,1490551,1294943
1684004,1493956,1295203
1684391,1497425,1294939
1684569,1501163,1295172
1685062,1505462,1295543
1685356,1510315,1296350
1686020,1515994,1296586
1686183,1521147,1297197
1686977,1525854,1296847
1687472,1528529,1296446
1687763,1529090,1297052
1687785,1528622,1297341
1688427,1528084,1297105
1688650,1527562,1297259
1688622,1527715,1297733
1688620,1528142,1297311
1688620,1528703,1297633
1688961,1529621,1298816
1689205,1530565,1298826
1689594,1530765,1298856
1689912,1530054,1298406
1689894,1529124,1299554
1690328,1527693,1298626
1690435,1527310,1298889
1690630,1526585,1300116
1690840,1526401,1299810
1691190,1525685,1300543
1690774,1524937,1300265
1690926,1524630,1301183
1690828,1524153,1301072
1691115,1523537,1301519
1691116,1523408,1301701
1690996,1523313,1301839
1691026,1522969,1301660
1690730,1522422,1301153
1690421,1521265,1300747
1690411,1520243,1298792
1689695,1518285,1296907
1689695,1515951,1295054
1689681,1513611,1289846
1689476,1510953,1286798
1689197,1508283,1284846
1688613,1505017,1282546
1688671,1502025,1282296
1687721,1497580,1281106
1687461,1495968,1281271
1686928,1494609,1280865
1686886,1493454,1281509
1686468,1492680,1281596
1686461,1491350,1281963
1686010,1489904,1282459
1685857,1488422,1283123
1685479,1486976,1283788
1685588,1485211,1284649
1685131,1483369,1284768
1684957,1481222,1285747
1684409,1479072,1286310
1684297,1477284,1286907
1683414,1475549,1287022
1683272,1473761,1287587
1682636,1471821,1287267
1682636,1470019,1287088
1682434,1468256,1286013
1682140,1466355,1286589
1682206,1464755,1285617
1681582,1462893,1284717
1681472,1461776,1284499
1680463,1459989,1284232
1680778,1459338,1283597
1680341,1458140,1283087
1680383,1456680,1282648
1679956,1454371,1282660
1679763,1452471,1283102
1680028,1451317,1283196
1679842,1450397,1283554
1679759,1449656,1283238
1679996,1448892,1283750
1679498,1448159,1283633
1679726,1447085,1284000
1679089,1446389,1283949
1679570,1445136,1284098
1679020,1443602,1283660
1678674,1441805,1284951
1678674,1439906,1285411
1678639,1437579,1285339
1679194,1435351,1285638
1678799,1432738,1285070
1678937,1430409,1285845
1678749,1428338,1285628
1678611,1424303,1285418
1678591,1422771,1285116
1678835,1420939,1285543
1678530,1419183,1285174
1678625,1417215,1285452
1678195,1415199,1285734
1678193,1413216,1286156
1677920,1411034,1286092
1678548,1408701,1285619
1678463,1406403,1285367
1678274,1404370,1284383
1678094,1402526,1283349
1678023,1400942,1283008
1677900,1398747,1282355
1677890,1396570,1280692
1677351,1394359,1280226
1677351,1392144,1279270
1677430,1390148,1277319
1677176,1388594,1275800
1677082,1386986,1275050
1676952,1385122,1274118
1677040,1382802,1274086
1676420,1378668,1273781
1676496,1376701,1273769
1675791,1374867,1273384
1675713,1373294,1272325
1675175,1372816,1271886
1674822,1372287,1271955
1674080,1372244,1271079
1674015,1372132,1270799
1673538,1371218,1269336
1673531,1369925,1267900
1673248,1368727,1266091
1673034,1367476,1264063
1672512,1366396,1262859
1672437,1365561,1260751
1671780,1364409,1260035
1671238,1363428,1258772
1670733,1361596,1256503
1670733,1360088,1253726
1670540,1358572,1246484
1670300,1356897,1241128
1669876,1355471,1237114
1669411,1353649,1232379
1669298,1352145,1229108
1667919,1349675,1226358
1667549,1348649,1224198
1667078,1347489,1222396
1667013,1346418,1222536
1666233,1345292,1221822
1666026,1343969,1221210
1665494,1342431,1219656
1665423,1340982,1218224
1665027,1339589,1216769
1665113,1338325,1216551
1664691,1337315,1216286
1664465,1336069,1215701
1663667,1335196,1215255
1663542,1333998,1213497
1662976,1333341,1210848
1662376,1332175,1207447
1661838,1331016,1202447
1661465,1325596,1197617
1660857,1324106,1184646
1660791,1322178,1178791
1660292,1320437,1175006
1659706,1318157,1173592
1659611,1315938,1174684
1659648,1314018,1177264
1659298,1312495,1180698
1659026,1311521,1182029
1658504,1310629,1183450
1658090,1310109,1184715
1657889,1309484,1184326
1657656,1309063,1183972
1657669,1307918,1182350
1657349,1306382,1181232
1657004,1304988,1180337
1656796,1304369,1181214
1656510,1304349,1182323
1656726,1304876,1185062
1656441,1305677,1188269
1656304,1306775,1193310
1656304,1308212,1197771
1656258,1309677,1201546
1656289,1311260,1207948
1656380,1311541,1209688
1656545,1310898,1210985
1656096,1309674,1209857
1655607,1306976,1208205
1655192,1305338,1207157
1655160,1304657,1205273
1654902,1304127,1203216
1654897,1303797,1199749
1654502,1303381,1195154
1654344,1302716,1189330
1654454,1302302,1183461
1654430,1301911,1178537
1654530,1301689,1173264
1654467,1301427,1170248
1654230,1300930,1167952
1654006,1300049,1169143
1653963,1299808,1171839
1653677,1299437,1175623
1653346,1299580,1179417
1653346,1299745,1184370
1653256,1300688,1188626
1653254,1302467,1194265
1653370,1305105,1195550
1653657,1308105,1196900
1653840,1311033,1198153
1653717,1313430,1199488
1654820,1317196,1201464
1654794,1317414,1204124
1655080,1316463,1206558
1654999,1315674,1209129
1655309,1314883,1211162
1655001,1314827,1212206
1655197,1315404,1213219
1655219,1315704,1214153
1655680,1316511,1212900
1655808,1317079,1212614
1655832,1317534,1212393
1655900,1317625,1211884
1655522,1318117,1210308
1655661,1318461,1209025
1655401,1318795,1207356
1655195,1319745,1205950
1655195,1321010,1205741
1655364,1322685,1206542
1655395,1324116,1207251
1655512,1325854,1207633
1655743,1326979,1208468
1655590,1328601,1208345
1656005,1331099,1207952
1656170,1332623,1206216
1656541,1333265,1204042
1656486,1333498,1201599
1656722,1332690,1198340
1656439,1331411,1196416
1656430,1330307,1193801
1656321,1329661,1191690
1656336,1329114,1188617
1656618,1328507,1186521
1656640,1328429,1185737
1656578,1328237,1184964
1656326,1328993,1184121
1656143,1330687,1183246
1656558,1332545,1182534
1656681,1334784,1181992
1656681,1336940,1181005
1656986,1340015,1180482
1657197,1342778,1176504
1657724,1345424,1173605
1658121,1348233,1171705
1658728,1351031,1168606
1659931,1355778,1166172
1660416,1357453,1162558
1660513,1358420,1160353
1660674,1359166,1157820
1660757,1359842,1155849
1661033,1359224,1154734
1660676,1358072,1153262
1661004,1356886,1151407
1660793,1355764,1148632
1661002,1354854,1147345
1660955,1354775,1144900
1661064,1355135,1143044
1660963,1356651,1139388
1661448,1358889,1135511
1661455,1361197,1132231
1661371,1363374,1129744
1661275,1365222,1127192
1661275,1366898,1125489
1661891,1368942,1124288
1662157,1371287,1123707
1662543,1372993,1124424
1662690,1373476,1125926
1663119,1373795,1128131
1663419,1373751,1131007
1663698,1373204,1135409
1663351,1372043,1138150
1663590,1371009,1140009
1663310,1369466,1141541
1663137,1368093,1143281
1663068,1367213,1144785
1662934,1366373,1145820
1663007,1366197,1147492
1663189,1366938,1146645
1663212,1368448,1146669
1663364,1370521,1145996
1663371,1373341,1144164
1663859,1376597,1143980
1664076,1379666,1143831
1664254,1382214,1143820
1664254,1384162,1143814
1664433,1386013,1144987
1664890,1387762,1145513
1665188,1388668,1146278
1665964,1388991,1146078
1665951,1388303,1145464
1666428,1386483,1145240
1665859,1385526,1145709
1666108,1384720,1145410
1666113,1383962,1144810
1666242,1383236,1144035
1665851,1382464,1144391
1665743,1381969,1144074
1665791,1382322,1144151
1665969,1382679,1145008
1666198,1383095,1145105
1666487,1383574,1145399
1666579,1383758,1145993
1666651,1384038,1146693
1666844,1384524,1147770
1667173,1384817,1148431
1667080,1384968,1150037
1666788,1383997,1152323
1666788,1382426,1153835
1666551,1380672,1155167
1666579,1378713,1154528
1666392,1376924,1154347
1666184,1375224,1154629
1665633,1373763,1154729
1665037,1372016,1154099
1664516,1371049,1154835
1664642,1370022,1154733
1664486,1370069,1153967
1664331,1370659,1154576
1664036,1371696,1155031
1664005,1373783,1155035
1664130,1375562,1155836
1664568,1376630,1155110
1664646,1377489,1154815
1664779,1378001,1152990
1664777,1378243,1150636
1664816,1377943,1147292
1664811,1377477,1144661
1664812,1376410,1140327
1664337,1374962,1136968
1664337,1373327,1132547
1664179,1372244,1128667
1664143,1371956,1122050
1664282,1372755,1119646
1664378,1374170,1119231
1664495,1375851,1119262
1664290,1378443,1120344
1665351,1383584,1121342
1665646,1387423,1121189
1666242,1390874,1120452
1666543,1394032,1120223
1667139,1396729,1119941
1667213,1398889,1118499
1667843,1401031,1119235
1668039,1402312,1119616
1668652,1402892,1121059
1668846,1402797,1123349
1668813,1401895,1125709
1668371,1400568,1127650
1668702,1398865,1129388
1668519,1396555,1129729
1668063,1394843,1131347
1667623,1393627,1132712
1667623,1393625,1134083
1667798,1394679,1133710
1667549,1396382,1133638
1667724,1399186,1133368
1667950,1402169,1132014
1668259,1404178,1131281
1668752,1408594,1130915
1669057,1409313,1130479
1669147,1409610,1129582
1669263,1408501,1129017
1669082,1406355,1130038
1668836,1403920,1133718
1668310,1401554,1136140
1668055,1399395,1139568
1667933,1397294,1141030
1668233,1395729,1142813
1667706,1394413,1145566
1667424,1392565,1148205
1667081,1391142,1148205
1666927,1389652,1151635
1666402,1388468,1155395
1666110,1386723,1159745
1666110,1384176,1164451
1665696,1381030,1169131
1665406,1377924,1172966
1665035,1374271,1176194
1664923,1370274,1178831
1664597,1366803,1179365
1663518,1361233,1180921
1663136,1359164,1181057
1663047,1356981,1182060
1662614,1355192,1182599
1662297,1353449,1182633
1662041,1351756,1184751
1661717,1350249,1185725
1661650,1349139,1186649
1661427,1347929,1186689
1661394,1346559,1187882
1661339,1344891,1190067
1660957,1343315,1193431
1660835,1341797,1194887
1660465,1340602,1195096
1660190,1339214,1195176
1659736,1338029,1195803
1658989,1336764,1195948
1658989,1335746,1196310
1658601,1335152,1196573
1658447,1334631,1196860
1658362,1335028,1198057
1658038,1335732,1198984
1658007,1336956,1201418
1657964,1343136,1203712
1658443,1346635,1205909
1658693,1349187,1207265
1659150,1352200,1208103
1659600,1355258,1207090
1659904,1358233,1207941
1660143,1360983,1208441
1660808,1363242,1208982
1661345,1364475,1210154
1661850,1365209,1209731
1662069,1365248,1210025
1662391,1365178,1210558
1662370,1364833,1210709
1662285,1363982,1210004
1662084,1363013,1205308
1661727,1361273,1197514
1661727,1359303,1193016
1661135,1356982,1195679
1660929,1355024,1196128
1660765,1353661,1197389
1660389,1352635,1197583
1660173,1352373,1197583
1659941,1354881,1197858
1659925,1356726,1199153
1660139,1358237,1200360
1660212,1360180,1201526
1660432,1362041,1202762
1660551,1363557,1203436
1660814,1364963,1204931
1661205,1366615,1206741
1661665,1368052,1207245
1661816,1369173,1207578
1662342,1369807,1209316
1662385,1369732,1210224
1662637,1369242,1210621
1662317,1368008,1210826
1662471,1365366,1210959
1662059,1362227,1211247
1661658,1358772,1210453
1661658,1355036,1211001
1661191,1351845,1210642
1661009,1349299,1211288
1660416,1347139,1210745
1660162,1344791,1211350
1659703,1343082,1212369
1659383,1341594,1212561
1659216,1341861,1213290
1659451,1342373,1213497
1659334,1343476,1214369
1659508,1343106,1215118
1658921,1341992,1215066
1658926,1339864,1215571
1658701,1338221,1216541
1658828,1336274,1216462
1658674,1334690,1216999
1658863,1333864,1217530
1658427,1333443,1218929
1658510,1334255,1220010
1658469,1336032,1219671
1659054,1338761,1220631
1658928,1342040,1222471
1658928,1345430,1223034
1659113,1348923,1223970
1659343,1351659,1223683
1660227,1354507,1224527
1660904,1356858,1225732
1661422,1358710,1226102
1661742,1359976,1227303
1661691,1360601,1227200
1662285,1360917,1228469
1662187,1361136,1228547
1662663,1360890,1229414
1662379,1359902,1229084
1662351,1358217,1230347
1661974,1356289,1231386
1662088,1354746,1233220
1661638,1353116,1233370
1661756,1351940,1234646
1661544,1350960,1235455
1661516,1350898,1236604
1660925,1351571,1237437
1661424,1353984,1238578
1661321,1357305,1238734
1661853,1361800,1239875
1661954,1366896,1240527
1661954,1372302,1242086
1662558,1377156,1242284
1662966,1381047,1243674
1663926,1384031,1244907
1664412,1386049,1245734
1665286,1387075,1246603
1665772,1387103,1246749
1665971,1385570,1247994
1665749,1382588,1248397
1665691,1379139,1248591
1665015,1374905,1248841
1664399,1370828,1249591
1663533,1367086,1250982
1663154,1364052,1252212
1662639,1361542,1252077
1662652,1360176,1252998
1662251,1359905,1253097
1662321,1360867,1254237
1662496,1364014,1254661
1662838,1369151,1255254
1663083,1375857,1254679
1663578,1383781,1254919
1663578,1392388,1253510
1663950,1400908,1252517
1664879,1409019,1250283
1665619,1414874,1245181
1666526,1417855,1241290
1667131,1419127,1239008
1668118,1417301,1236374
1668057,1414982,1235060
1668227,1412571,1234002
1668269,1410245,1232742
1668216,1408383,1232847
1667735,1406633,1233204
1667786,1406033,1233965
1667556,1405930,1234665
1667980,1406654,1235974
1668365,1408862,1237123
1668656,1411410,1238623
1668697,1414575,1239451
1669218,1418811,1240466
1669377,1424019,1241265
1670315,1429466,1242538
1670641,1434670,1243759
1670641,1438689,1243475
1671282,1441839,1243557
1672015,1443751,1243945
1672884,1443858,1245081
1673232,1442075,1244956
1673140,1438173,1244100
1673192,1434364,1242650
1672407,1426870,1242431
1671607,1423803,1241344
1671180,1421091,1241403
1670708,1418715,1240538
1670295,1416143,1240065
1669658,1413647,1239154
1669928,1412695,1238589
1669826,1412192,1237890
1670135,1413182,1237967
1670460,1415516,1237398
1670727,1418617,1235889
1670933,1421309,1235229
1671461,1423471,1233735
1671685,1424293,1232670
1672058,1424169,1231839
1671827,1422518,1232035
1671827,1419304,1231101
1671857,1415403,1230475
1671802,1411203,1229645
1671426,1407510,1229568
1670769,1403502,1229323
1669965,1400044,1228566
1668619,1394041,1227968
1668267,1391093,1227648
1667858,1388066,1226651
1667637,1385757,1226464
1666973,1383466,1225333
1666061,1379823,1225574
1665919,1381171,1225540
1666438,1381192,1225233
1666252,1376444,1225159
1665525,1372123,1224872
1665300,1371222,1224857
1665232,1370687,1224460
1664824,1370491,1224861
1664394,1370366,1225231
1664380,1370376,1225082
1664461,1370860,1226210
1664561,1371764,1226295
1664870,1372651,1225984
1665166,1373203,1226995
1665364,1373579,1227523
1666090,1374121,1228798
1666779,1374718,1229205
1667469,1375612,1229783
1668130,1376776,1231430
1668527,1378368,1231701
1668679,1379944,1232394
1669135,1381687,1233550
1669233,1382130,1233994
1669213,1381370,1234160
1668908,1379055,1235030
1668908,1376216,1235680
1668727,1372686,1237243
1668449,1370517,1237639
1668132,1368746,1237786
1667705,1367854,1238104
1667702,1367510,1238609
1667644,1370319,1239553
1667872,1373130,1239041
1668089,1376220,1238790
1668422,1380107,1237990
1669062,1383417,1237480
1669404,1386195,1235898
1669640,1387520,1230622
1670193,1387438,1226108
1670665,1386116,1222222
1670860,1383400,1218478
1670586,1379971,1214703
1670574,1376295,1210784
1669749,1372484,1208685
1669038,1369010,1206486
1668231,1365870,1205353
1667285,1362768,1204486
1667285,1359541,1204549
1666471,1357378,1204772
1665757,1356039,1205838
1665182,1355587,1204940
1664949,1355638,1206235
1664474,1356679,1206630
1664641,1361526,1207009
1664674,1363577,1208637
1665213,1365000,1208330
1665269,1366535,1208410
1665735,1367837,1208573
1665587,1368523,1208728
1665729,1368970,1208490
1665666,1369176,1208285
1665719,1368296,1208622
1666007,1366615,1208602
1665796,1364116,1207799
1665185,1361207,1207071
1664723,1358538,1206227
1664295,1356062,1205573
1663916,1354099,1203891
1663161,1352547,1203456
1663161,1351011,1202860
1662703,1349976,1202191
1662625,1349181,1202129
1662443,1348656,1201945
1662359,1349980,1202040
1662544,1351863,1201977
1662462,1355162,1202132
1663998,1361824,1203774
1664122,1365358,1203617
1665113,1367462,1205182
1665400,1370010,1206548
1665715,1371333,1207659
1665554,1371831,1208495
1665904,1370965,1210186
1665873,1368776,1211284
1665756,1365752,1211875
1665584,1362482,1213403
1665059,1359429,1214533
1664204,1357112,1215229
1663905,1355519,1217446
1663737,1354435,1218884
1663086,1354646,1219419
1662893,1355679,1220344
1662893,1357395,1221359
1663184,1359954,1221533
1663387,1362914,1222182
1663968,1365727,1222018
1664237,1367996,1222159
1664868,1370058,1222159
1665918,1372998,1222394
1666024,1373261,1222774
1665870,1371829,1222417
1666154,1370190,1223334
1665648,1367583,1222610
1665066,1364889,1223843
1664518,1362105,1223409
1664173,1358995,1224151
1663631,1356030,1223880
1663323,1353245,1224733
1662512,1350879,1224618
1662532,1349094,1226173
1661629,1348523,1225747
1661518,1348958,1225974
1661642,1351153,1226100
1661529,1354067,1226897
1661529,1357631,1226277
1661588,1361638,1226829
1662181,1365616,1226337
1663201,1369077,1226804
1663329,1371376,1226341
1663802,1372727,1224999
1663901,1373280,1223496
1663797,1372668,1221066
1663725,1371116,1217850
1663645,1368858,1213008
1663357,1366540,1208963
1663029,1363571,1205607
1662480,1360507,1203407
1662255,1358322,1199682
1661876,1356909,1197525
1661719,1356427,1196900
1662089,1357244,1196321
1662338,1359280,1197285
1662329,1362360,1197617
1662522,1366473,1197593
1662728,1370986,1197520
1663341,1374670,1197323
1663491,1377434,1197748
1663967,1379603,1198239
1663967,1381462,1198888
1664404,1382748,1198559
1664876,1383779,1198265
1665286,1383658,1199212
1665304,1382771,1197617
1665216,1381427,1197648
1664818,1379959,1198868
1664816,1378858,1198618
1664753,1377510,1197139
1664535,1375551,1196024
1664245,1372996,1195031
1664082,1370279,1194067
1663352,1367481,1195203
1663343,1365899,1196177
1663123,1365000,1196665
1663355,1365388,1196725
1663414,1367325,1196584
1663713,1370076,1198122
1663861,1372806,1198122
1664233,1375318,1198530
1664598,1377465,1198681
1664779,1379155,1198191
1665034,1380060,1199554
1665034,1380596,1199734
1665041,1380894,1200188
1665014,1380926,1200114
1665406,1380537,1200378
1665251,1379858,1200734
1665404,1378476,1200849
1664901,1375661,1199711
1664872,1374243,1198986
1664615,1372627,1198775
1664411,1371541,1198809
1664375,1370712,1198431
1664360,1370729,1198698
1663995,1371475,1198193
1664256,1373330,1197976
1664127,1375659,1198000
1665224,1378473,1198016
1665279,1381742,1197641
1665849,1384898,1196857
1666176,1387326,1196868
1666371,1389668,1196707
1666761,1391317,1196427
1666901,1391721,1196604
1666998,1390795,1197501
1666815,1388805,1197828
1666519,1386932,1199401
1666148,1385414,1200387
1666109,1383943,1200730
1665544,1382871,1201828
1665096,1382083,1203647
1665050,1381702,1204942
1664965,1381107,1206608
1664921,1380671,1207593
1664470,1380077,1208755
1664487,1380050,1209649
1664430,1381156,1210117
1664710,1382748,1210219
1664944,1384453,1210763
1665430,1386684,1211715
1665672,1388258,1211277
1665493,1387682,1210168
1664923,1381819,1205542
1664004,1378180,1202340
1664223,1378834,1198630
1664482,1380129,1194514
1664375,1382282,1190594
1664196,1384756,1186267
1664549,1387139,1182713
1664676,1389333,1178046
1665185,1392005,1174857
1665420,1394699,1171740
1665629,1397013,1170093
1665733,1398758,1169210
1665876,1400456,1168141
1666178,1401173,1168057
1666534,1401018,1168628
1666505,1400081,1168314
1666448,1398348,1168532
1666248,1396144,1169806
1666020,1394212,1170251
1665892,1392050,1171321
1665700,1390258,1173390
1665068,1388597,1174546
1665068,1387296,1178302
1665034,1386693,1180394
1664888,1387162,1181946
1664970,1388055,1182903
1664811,1389060,1183280
1664987,1390664,1182427
1665588,1394223,1181651
1666022,1395403,1178018
1665832,1396381,1173474
1666340,1397034,1167249
1666335,1398180,1161149
1666575,1398599,1156117
1666382,1398742,1152319
1666640,1398179,1149171
1666573,1396758,1146040
1666967,1394877,1142501
1666796,1392373,1139938
1666530,1390126,1137683
1665994,1388140,1135117
1666199,1386245,1133037
1665730,1384685,1137284
1665449,1383312,1143108
1664883,1381983,1147291
1664883,1381094,1153452
1665069,1380762,1156532
1664835,1381146,1159611
1664987,1381667,1163244
1664778,1382244,1166074
1664852,1383138,1169463
1665347,1384941,1173344
1665535,1385515,1175670
1665474,1386307,1177685
1665766,1386867,1181070
1665787,1387285,1184230
1666034,1387275,1186628
1665778,1386871,1188648
1665970,1386304,1190840
1666091,1385150,1192865
1666238,1383868,1196277
1665836,1382725,1198747
1666026,1381398,1200838
1665675,1380920,1202909
1665813,1380515,1204024
1665378,1380587,1206129
1665286,1380442,1206633
1665286,1379691,1207152
1664996,1378594,1209823
1665121,1377622,1210833
1664707,1376836,1211212
1664840,1376241,1211542
1664609,1375505,1212530
1664171,1374715,1212860
1664004,1374382,1213655
1663872,1373978,1214595
1663666,1373925,1215986
1663620,1374565,1216643
1663454,1374913,1217979
1663414,1375416,1218973
1663266,1376010,1219733
1663369,1375881,1220058
1663682,1375569,1221235
1663770,1375189,1222462
1663265,1374996,1223365
1663238,1375207,1223268
1663026,1376066,1222618
1663457,1377128,1222998
1663281,1378544,1222222
1662925,1379589,1220234
1662925,1380538,1215670
1662876,1381190,1213014
1663150,1381726,1210287
1663062,1382290,1207642
1663200,1382835,1205718
1662969,1383335,1204844
1662934,1384611,1203512
1662690,1384899,1203692
1663095,1384827,1203369
1662870,1384635,1204181
1662531,1383557,1205193
1662362,1382068,1207249
1662288,1380634,1208615
1662009,1379097,1209552
1662222,1377532,1212130
1662062,1376473,1214216
1662009,1375388,1216141
1661494,1374271,1217958
1661581,1373337,1220442
1661525,1372810,1222630
1661819,1372436,1224776
1661255,1372735,1226767
1661255,1373107,1230320
1661132,1373710,1231592
1660896,1375081,1232699
1661273,1376690,1233794
1661299,1378940,1233980
1661490,1380759,1234960
1661382,1382584,1236049
1662228,1384352,1236135
1662314,1384391,1236334
1662403,1384241,1237227
1662538,1384395,1237434
1662853,1384533,1238983
1662786,1385037,1240673
1663059,1386184,1242306
1663047,1386996,1243510
1663737,1387717,1245617
1663566,1387733,1247053
1663872,1387230,1249662
1663790,1386099,1251785
1663968,1385184,1254341
1663433,1383678,1256554
1663253,1382447,1258926
1662795,1381330,1260904
1662795,1379746,1264070
1662780,1378163,1265802
1662582,1376919,1266885
1662394,1376153,1267319
1662010,1375668,1268744
1662063,1375636,1268962
1662094,1378579,1269143
1662263,1380950,1269716
1662418,1382888,1268992
1662839,1385224,1269280
1662834,1386993,1268992
1663112,1388485,1268240
1663146,1389658,1267049
1663490,1390773,1265469
1663755,1391305,1263186
1664147,1391952,1258907
1664190,1392095,1256038
1664110,1391571,1252617
1663801,1390335,1248290
1663899,1388435,1245011
1663807,1385996,1242813
1663255,1383705,1240624
1663255,1381115,1235939
1662579,1379123,1232893
1662497,1377313,1230284
1662164,1376351,1227102
1662116,1375257,1224265
1661707,1374875,1222461
1661712,1374796,1221450
1661231,1374033,1220733
1661231,1373901,1221178
1661130,1373849,1221889
1661119,1374578,1223134
1661089,1375733,1224295
1660967,1377339,1224769
1661306,1379028,1223136
1661416,1380279,1221396
1661711,1380227,1219281
1661830,1379044,1217304
1661580,1377138,1213820
1661083,1374743,1210206
1660947,1372431,1206432
1660640,1369919,1203258
1660292,1367788,1200674
1659859,1365536,1197723
1659859,1363115,1196522
1659647,1361502,1197546
1659378,1360585,1197633
1659268,1360548,1197677
1658937,1361237,1197860
1658975,1362144,1198591
1659273,1364464,1197535
1659304,1365558,1197453
1659476,1366174,1196454
1659665,1366849,1195438
1660030,1367610,1193970
1659840,1368636,1193642
1659940,1370190,1192682
1660446,1371819,1193798
1660657,1373643,1193292
1660743,1374913,1193409
1661021,1375051,1193099
1660923,1374267,1191802
1660982,1373301,1191954
1661102,1372227,1191041
1660686,1371271,1189369
1660480,1370744,1188907
1660480,1370363,1185495
1660258,1369797,1184445
1660366,1369407,1183254
1660293,1369013,1181731
1660284,1368678,1181871
1660254,1368044,1182614
1660068,1367619,1183376
1660144,1366819,1184357
1659917,1366456,1185821
1659870,1366128,1185980
1659862,1366197,1186809
1659673,1365831,1187229
1659544,1365592,1187987
1659575,1365622,1188565
1659701,1365805,1188747
1659940,1366007,1188638
1660179,1365907,1189469
1659632,1365552,1189547
1659706,1365415,1188475
1659705,1365049,1187763
1659500,1364541,1188013
1659209,1364650,1189002
1659000,1364446,1189035
1658663,1364129,1188966
1658663,1364239,1189704
1658998,1363895,1189657
1658821,1363172,1189856
1658784,1362937,1190293
1658575,1362476,1190676
1658894,1362403,1191018
1658643,1362384,1191099
1658787,1362647,1191585
1658775,1363086,1192089
1659113,1363389,1191602
1658798,1363656,1192461
1658944,1363679,1191402
1658930,1363354,1190509
1659124,1363477,1190392
1659312,1363484,1190682
1659578,1363890,1191091
1659609,1364119,1190507
1659717,1364591,1189857
1659853,1365248,1189493
1659736,1366115,1189502
1659586,1366512,1190679
1659586,1366255,1191312
1659725,1365379,1191671
1659600,1363868,1192605
1659665,1362637,1191275
1659550,1360907,1191715
1659597,1359093,1191682
1658905,1356931,1192905
1658770,1356449,1193249
1658700,1356218,1192805
1658911,1356276,1191267
1658762,1356439,1187998
1658610,1355827,1185278
1658214,1354788,1182445
1658556,1353931,1179595
1658037,1352914,1177620
1658315,1351509,1175462
1658365,1350889,1174881
1658164,1350710,1174323
1657720,1350492,1174022
1657962,1350724,1173832
1657823,1350829,1173710
1657583,1351257,1172455
1657195,1351838,1172549
1657195,1352347,1173457
1657425,1352798,1173703
1657286,1353168,1173378
1657557,1353201,1174134
1657284,1352589,1173971
1657478,1351802,1174208
1657354,1351682,1174787
1657472,1352083,1175157
1657384,1352140,1174594
1657330,1352288,1174326
1657264,1352851,1174669
1657345,1352868,1176218
1657088,1353016,1176575
1657334,1353019,1176887
1657445,1352490,1177795
1657597,1351689,1178627
1657396,1350831,1179843
1657482,1349980,1181520
1657090,1349772,1183122
1656940,1349631,1183625
1656807,1349559,1184969
1656690,1349475,1188159
1656374,1349510,1189393
1656374,1349502,1189393
1656629,1349496,1190042
1656572,1349974,1191271
1656896,1350283,1191860
1656765,1350739,1193066
1656632,1351213,1194364
1656500,1351009,1196111
1656520,1350673,1197364
1656528,1350413,1198125
1656396,1350136,1199662
1656318,1349525,1201172
1656178,1349083,1202705
1656183,1348888,1204182
1656513,1348868,1205605
1656631,1348815,1206851
1656746,1348632,1208119
1656574,1348532,1209847
1656747,1348746,1210858
1656459,1348980,1211603
1656611,1349203,1212266
1656357,1348936,1212967
1655999,1348399,1213410
1655999,1348115,1212421
1655956,1347806,1213566
1656364,1347257,1212431
1655981,1346628,1211271
1655948,1345842,1209053
1655780,1344919,1207940
1655888,1343557,1206622
1655676,1343326,1205673
1655910,1342951,1204949
1655786,1342965,1203557
1655846,1342824,1203499
1655670,1342889,1204429
1655742,1343599,1204197
1655669,1344271,1204913
1655961,1344861,1205764
1656203,1345575,1207959
1656484,1346329,1209193
1656460,1346507,1210842
1656544,1347005,1211669
1656490,1346809,1212673
1656521,1347062,1213949
1656286,1346885,1215155
1656286,1346532,1216925
1656519,1346339,1218454
1656310,1346207,1219292
1656670,1346156,1219441
1656409,1346219,1220438
1656666,1346303,1217838
1656735,1346710,1210351
1656655,1346542,1198986
1656762,1345804,1192927
1656772,1345287,1192331
1656522,1344176,1192758
1656398,1342963,1193481
1656239,1342160,1193672
1656420,1341820,1193746
1656365,1341208,1194097
1656678,1340730,1194097
1656480,1340341,1195446
1656500,1340025,1195072
1656528,1339652,1195571
1656527,1339880,1196157
1656377,1340320,1196395
1656123,1340803,1196962
1656123,1340988,1198160
1655901,1341091,1199068
1656068,1341158,1200262
1655931,1341141,1201012
1656123,1340664,1201599
1655923,1339965,1202350
1655732,1338937,1202899
1655810,1338723,1202957
1655651,1338339,1203294
1655700,1338326,1203800
1655541,1338991,1203469
1655578,1339128,1202439
1655355,1339576,1201058
1655512,1340389,1200258
1655602,1341518,1199349
1656136,1342358,1198420
1656304,1342855,1196125
1656170,1343170,1195077
1656107,1343441,1194530
1656180,1343869,1194944
1656352,1344330,1195667
1656219,1344924,1195856
1656082,1345833,1195925
1656082,1346615,1195959
1656363,1347188,1196275
1656288,1347666,1196105
1656522,1348449,1196920
1656700,1348546,1197225
1656643,1348415,1197417
1656768,1349149,1197962
1656934,1349957,1198345
1657098,1350567,1197694
1657167,1351118,1198154
1657342,1353212,1197788
1657928,1357132,1198078
1658429,1357847,1198029
1658364,1356333,1198175
1658229,1356166,1198305
1658491,1356627,1197741
1658683,1357011,1198055
1658769,1357107,1197702
1658674,1357584,1197544
1658513,1358232,1197361
1658798,1358831,1198279
1659005,1359883,1198480
1659179,1360960,1198552
1659233,1361767,1198399
1659335,1361849,1199541
1659271,1362216,1200131
1659195,1363371,1201206
1659585,1364032,1201556
1660209,1365269,1202773
1660457,1366345,1203947
1660549,1367261,1204615
1660646,1367924,1205938
1660757,1368662,1207062
1660936,1369058,1208456
1660831,1369665,1209833
1660711,1370281,1211985
1660711,1371121,1213902
1660857,1371813,1217192
1661081,1372909,1219289
1661173,1373702,1221337
1661426,1374727,1222654
1661405,1374923,1223891
1662002,1375966,1225463
1661814,1376490,1226367
1661931,1376394,1226319
1662106,1376033,1226414
1662342,1376783,1224866
1662121,1376742,1223480
1662130,1376913,1221534
1662367,1377053,1217764
1662669,1377162,1213818
1662699,1376854,1210413
1662827,1377413,1207575
1663008,1377508,1206083
1663004,1377967,1204240
1662975,1378513,1204317
1663243,1379023,1204313
1662783,1379082,1204518
1662783,1379376,1205444
1662958,1379042,1207803
1663146,1378145,1209399
1662952,1376459,1210760
1662638,1373829,1211053
1662655,1370906,1212057
1661574,1364940,1212877
1661350,1362172,1213137
1660812,1359383,1213684
1660859,1357409,1214247
1660515,1356231,1214404
1660410,1355790,1214798
1660137,1355690,1215694
1660361,1356232,1216434
1660290,1356750,1215681
1660734,1356871,1215704
1660468,1356434,1215223
1660332,1355646,1214352
1660191,1355379,1214821
1660293,1355500,1213453
1660511,1356064,1212806
1660277,1357021,1212210
1659990,1357556,1212098
1659990,1358222,1211601
1660219,1358504,1211928
1660219,1358897,1212193
1660385,1359086,1214070
1660357,1359455,1216895
1660557,1360513,1218903
1660805,1364112,1220033
1661227,1366475,1221640
1661360,1368893,1221864
1661983,1371152,1222450
1662031,1373076,1222075
1662149,1374561,1222747
1662188,1376416,1222542
1662491,1377515,1222360
1662689,1378132,1222360
1663209,1379042,1221906
1663103,1379633,1221920
1663617,1380243,1221972
1663363,1381205,1222056
1663751,1382275,1221756
1663713,1382902,1221422
1663517,1383525,1221546
1663517,1383747,1221598
1663505,1383863,1221783
1664047,1383812,1222311
1663774,1384371,1222285
1664286,1384258,1222030
1664395,1384114,1221988
1664286,1384297,1222400
1664338,1384613,1222666
1664516,1384516,1223371
1664313,1384549,1223399
1664507,1384767,1223241
1664338,1384645,1224593
1664213,1384854,1225557
1664558,1385500,1225936
1664859,1386202,1226987
1665046,1387150,1228340
1665385,1387995,1228465
1665441,1388668,1228670
1665590,1389228,1228715
1665539,1389805,1229327
1665908,1389765,1228426
1665488,1389791,1227468
1665534,1389646,1224760
1665534,1389185,1222705
1665703,1389683,1219071
1665895,1389680,1214974
1665989,1390215,1211333
1666042,1389974,1208477
1666021,1390081,1206241
1666514,1390891,1204793
1666446,1391549,1203388
1666514,1391717,1204539
1666522,1391704,1205095
1666615,1391017,1205878
1666373,1390001,1207670
1666422,1389043,1209589
1666499,1388343,1212507
1666677,1388100,1213618
1667013,1388071,1215153
1667179,1388113,1216428
1667051,1387720,1217882
1667087,1387463,1218916
1666995,1387056,1220597
1666797,1386859,1222177
1666412,1386351,1223353
1666412,1386014,1223961
1666499,1385503,1225471
1666319,1384985,1225403
1666487,1384327,1226319
1666394,1383267,1227442
1666426,1382244,1227854
1665539,1380975,1227627
1665561,1380593,1227899
1665338,1379967,1228150
1665334,1379715,1228593
1665087,1379310,1228817
1665016,1378826,1228467
1664550,1378591,1227898
1664670,1378944,1227314
1664964,1379407,1228315
1665254,1380365,1229529
1665113,1380936,1230249
1665363,1381356,1231071
1665249,1381901,1232977
1665282,1382674,1233963
1665406,1383148,1235197
1665273,1384229,1236089
1664988,1384657,1237437
1664988,1385163,1237948
1665361,1385226,1238432
1665221,1385259,1239830
1665219,1384591,1240832
1665276,1383518,1241645
1665365,1382492,1242697
1665053,1381280,1244466
1664997,1380758,1245301
1664834,1379712,1246439
1665064,1378641,1247490
1664775,1376869,1248712
1664450,1374576,1249635
1664228,1372565,1249585
1664068,1371015,1251751
1664231,1370017,1252616
1664091,1369371,1252658
1663721,1366572,1253101
1663510,1363475,1254220
1663259,1360650,1254618
1662880,1360670,1255210
1662949,1360378,1256007
1662919,1360234,1256346
1662365,1360555,1257336
1662473,1360544,1257926
1662600,1360456,1258351
1662795,1360880,1259020
1662770,1361779,1259425
1662641,1362198,1259704
1662710,1362418,1259704
1662560,1362339,1260567
1662689,1362292,1260702
1662799,1361858,1260677
1663132,1361884,1259729
1663138,1361912,1258240
1662879,1361533,1255893
1662891,1360770,1253331
1662974,1360223,1249069
1662903,1359910,1241812
1662648,1359737,1238576
1662648,1359633,1235484
1662411,1359773,1233477
1662559,1359597,1231994
1662599,1359632,1231342
1662867,1359492,1230728
1662852,1359033,1229533
1662796,1359066,1229483
1662789,1359773,1230851
1662875,1360816,1231350
1663111,1361396,1232574
1663257,1361701,1232981
1662989,1361080,1233726
1662963,1360570,1233910
1663150,1360286,1233382
1663314,1359706,1234301
1663415,1359282,1233915
1663455,1358946,1233224
1663432,1358614,1232871
1663335,1358367,1233414
1663422,1358346,1233234
1663289,1358301,1232855
1663357,1358677,1232572
1663057,1358715,1232928
1663057,1358399,1232939
1662992,1358247,1233354
1662860,1358050,1233188
1662951,1357511,1233284
1662821,1356907,1233055
1662451,1355944,1233036
1662458,1354800,1233102
1662138,1354490,1233585
1662147,1354268,1234261
1662000,1354327,1234747
1662118,1354269,1235104
1661781,1355251,1236732
1661898,1356059,1237279
1661575,1356229,1238178
1661587,1356404,1238298
1661738,1357602,1240508
1661925,1358045,1241307
1661938,1358366,1242767
1661722,1358180,1244396
1661185,1357472,1246017
1661388,1357119,1247338
1661259,1356865,1247895
1661412,1357237,1248122
1661374,1357455,1248717
1661385,1357458,1250094
1661147,1357511,1251658
1661438,1357949,1252347
1661481,1358155,1252525
1662076,1358637,1254157
1661941,1359589,1255938
1662260,1360914,1257278
1662458,1362254,1257672
1662287,1363718,1258540
1662288,1364957,1259105
1662510,1366203,1259772
1662249,1367040,1260462
1662249,1367827,1261346
1662672,1367530,1261182
1662518,1367986,1262256
1662838,1367654,1262128
1662511,1366959,1263066
1662645,1365177,1263929
1662316,1361820,1264468
1662170,1360586,1265367
1661869,1359280,1265466
1661665,1358462,1265993
1661875,1357702,1267225
1661503,1355344,1268170
1661197,1352743,1268147
1661362,1353790,1269240
1661313,1354796,1269736
1661439,1354758,1269860
1661175,1353799,1269410
1661428,1352619,1269284
1660661,1351097,1267266
1660699,1348992,1264618
1660460,1346655,1261199
1660525,1344732,1258299
1660354,1342989,1255148
1660083,1341342,1252607
1659911,1339795,1250265
1659652,1338659,1247960
1659730,1337607,1246594
1659837,1336671,1245863
1660095,1336190,1244488
1660261,1335507,1245380
1659911,1334702,1246260
1659879,1334124,1246186
1659689,1333854,1248023
1659756,1333191,1247987
1659520,1332889,1248722
1659520,1332826,1249213
1659337,1333220,1248742
1659299,1333571,1248521
1659502,1334219,1248237
1659551,1334853,1248693
1659389,1335425,1250209
1659307,1336392,1250393
1659645,1338711,1250808
1659686,1340073,1250978
1660017,1341558,1250952
1659950,1343096,1251542
1660105,1344540,1251322
1659750,1345773,1251149
1660191,1347201,1251677
1660026,1348408,1252238
1660622,1349684,1252814
1660896,1350732,1252530
1661136,1351918,1252997
1660983,1352921,1252733
1661418,1354555,1253775
1661203,1356094,1254462
1661419,1358194,1254844
1661115,1359744,1256442
1661115,1360553,1258059
1661325,1361147,1258416
1661439,1361461,1259100
1661739,1361865,1260715
1661596,1361797,1262652
1661435,1361943,1263174
1661833,1363318,1264495
1661970,1364428,1264857
1661915,1364942,1265980
1662107,1366379,1266731
1662117,1367574,1266419
1662076,1368828,1266094
1662231,1370155,1265869
1662405,1371853,1266811
1662794,1373198,1266937
1663039,1373780,1266880
1663016,1374066,1267294
1663119,1374117,1268219
1663036,1373989,1268147
1662983,1373551,1268373
1663180,1373185,1268728
1662773,1372693,1268892
1662773,1371882,1269199
1662747,1371235,1269965
1662568,1371181,1270761
1662575,1371100,1271124
1662585,1370865,1271369
1662626,1370572,1272990
1662753,1370290,1273461
1662509,1369685,1273347
1662645,1368779,1273849
1662653,1368146,1275231
1662636,1367534,1274741
1662281,1367139,1275158
1662258,1367323,1275308
1662317,1368227,1276149
1662879,1370618,1276348
1663094,1371481,1277042
1663640,1372259,1278175
1663577,1374120,1278665
1663848,1375046,1279068
1664242,1375878,1278665
1664040,1376418,1279495
1663931,1376702,1279541
1663960,1376301,1278890
1664047,1375787,1278256
1664123,1375844,1277061
1663988,1375873,1274716
1664178,1375847,1272897
1664152,1376049,1269593
1664104,1376498,1266259
1664278,1377105,1264822
1664613,1377650,1263217
1664925,1378160,1262374
1664856,1378232,1261674
1665059,1378558,1261351
1664911,1379530,1261346
1665239,1380512,1260919
1665137,1382043,1260740
1664857,1383206,1261762
1664857,1384439,1261902
1664962,1385827,1262644
1665382,1387237,1262752
1665508,1388896,1262102
1665735,1390219,1261863
1665817,1390986,1262695
1666206,1392852,1261801
1666220,1393741,1262005
1666525,1394705,1262171
1666556,1395935,1262725
1666602,1396722,1262473
1666574,1396710,1262252
1666554,1397531,1262002
1667101,1398727,1262867
1667270,1401417,1262427
1667270,1403480,1261425
1667191,1402951,1261380
1667318,1403375,1261248
1667627,1403561,1260482
1667236,1404114,1258503
1667406,1404546,1258639
1667211,1404633,1258715
1667563,1404728,1258579
1667447,1404382,1259694
1667653,1404529,1258833
1667254,1405153,1259688
1667683,1406593,1260375
1667743,1407746,1259993
1668661,1410860,1260817
1668329,1412889,1261381
1669144,1416969,1262021
1669063,1418616,1262829
1669683,1419596,1262364
1669491,1420527,1263392
1669791,1421085,1264856
1669782,1421858,1265835
1669662,1422232,1265926
1669845,1421846,1266078
1669892,1421638,1266687
1669825,1420920,1267609
1669908,1420852,1267446
1669944,1420433,1267974
1670082,1420487,1268520
1670102,1421006,1268375
1670445,1421948,1269121
1670618,1422880,1269119
1670972,1423706,1269251
1670749,1424036,1270013
1670929,1423845,1270263
1670838,1423604,1270277
1670944,1423611,1269982
1670819,1423962,1270983
1670733,1424159,1271249
1670733,1424189,1271200
1670642,1424556,1271041
1671111,1425579,1271676
1671103,1426443,1271388
1671182,1427254,1272447
1671217,1428227,1272357
1671230,1428433,1272645
1671274,1427383,1272851
1671504,1426778,1272972
1671558,1426311,1273201
1671617,1425745,1272954
1671426,1425372,1272562
1671454,1425606,1272448
1671423,1425583,1271745
1671884,1425703,1271098
1671963,1425791,1267391
1671955,1426051,1264675
1672105,1426020,1262123
1672042,1426691,1260148
1672039,1427337,1258704
1672083,1428375,1257275
1671919,1429598,1256219
1671919,1430595,1255012
1672359,1431107,1254425
1672291,1431394,1254357
1672512,1431441,1255191
1672390,1431035,1255640
1672385,1429877,1256226
1672616,1430120,1256770
1672548,1430432,1257316
1672290,1430155,1257707
1672679,1429855,1258969
1672484,1429715,1258602
1672448,1429106,1259021
1672143,1428722,1259517
1672465,1429130,1259861
1672468,1429371,1261145
1672506,1429784,1262124
1672486,1429877,1262739
1672594,1430158,1262425
1672372,1430552,1262266
1672466,1430709,1263295
1672484,1431114,1263290
1672358,1431518,1263777
1672109,1431663,1264062
1672109,1431633,1264836
1672241,1431895,1265428
1672425,1432211,1265604
1672449,1432476,1266570
1672326,1432729,1267033
1672256,1433374,1266498
1672674,1434759,1266863
1672825,1436050,1267357
1672638,1436788,1267957
1672804,1437518,1268864
1672675,1437324,1268238
1672689,1437595,1268862
1673086,1438155,1269189
1673138,1438429,1269752
1673373,1438935,1271201
1673670,1439295,1271084
1673409,1439981,1271893
1673496,1441068,1272077
1673772,1442388,1273146
1674188,1444092,1274302
1674078,1445990,1275257
1673966,1447179,1275145
1673966,1447801,1277254
1674129,1447866,1277691
1674364,1447611,1278910
1674307,1447348,1279808
1674445,1447179,1281777
1674566,1447453,1282592
1674968,1448729,1283052
1674981,1449669,1282836
1675172,1450444,1283412
1675347,1451825,1284979
1675515,1453026,1286385
1675336,1454364,1286181
1675950,1456104,1287485
1675970,1457122,1287260
1676282,1458168,1287951
1676439,1458555,1288512
1676776,1458831,1287993
1676882,1459022,1288698
1677204,1459971,1288168
1677108,1460894,1288134
1677276,1462510,1289083
1677037,1463957,1289507
1677037,1465632,1289386
1677232,1467446,1289149
1677565,1469886,1289664
1677976,1472204,1289417
1677967,1473488,1289716
1678327,1474551,1290280
1679085,1475356,1290293
1679324,1475504,1289456
1679474,1475543,1288570
1679656,1475074,1287993
1679630,1474593,1286250
1679614,1474205,1284474
1679774,1474085,1282264
1679734,1473802,1279534
1680165,1473241,1278378
1680331,1472384,1276677
1680254,1471459,1274120
1680079,1470252,1273558
1680054,1469324,1272493
1680253,1468550,1271670
1680359,1468326,1272947
1679569,1467914,1272620
1679569,1467464,1272274
1679735,1466732,1272436
1679419,1465742,1272055
1679632,1464886,1271867
1679447,1463689,1272964
1679399,1462298,1273311
1678861,1461194,1274056
1678877,1461566,1274588
1678701,1461687,1274426
1678986,1462557,1274580
1679028,1462831,1274272
1678838,1463029,1274272
1678641,1463111,1274709
1678822,1462689,1274234
1678803,1461983,1273268
1678730,1461317,1273944
1678526,1460442,1274399
1678564,1459319,1274322
1678264,1458442,1274159
1677978,1457949,1274879
1677600,1457967,1275018
1677566,1458178,1274732
1677566,1458530,1275385
1677601,1459172,1275806
1677506,1459262,1276520
1677706,1459821,1277121
1677520,1460597,1276762
1677631,1461075,1278359
1677751,1462554,1278916
1677579,1463384,1279195
1677858,1464438,1279439
1677844,1465744,1280201
1678216,1467298,1280327
1677999,1469181,1281019
1678325,1471972,1281582
1678521,1475044,1280670
1679044,1477849,1281303
1679303,1479851,1281900
1679493,1481347,1282762
1679691,1482422,1282133
1680014,1484315,1282595
1680554,1486197,1283210
1680389,1488730,1282722
1680271,1491087,1282645
1680271,1493535,1284231
1680715,1495648,1284061
1681042,1497828,1284837
1681584,1499683,1285107
1681645,1500567,1285514
1682174,1501241,1285923
1682094,1501932,1286594
1682665,1501832,1286474
1682668,1501337,1287396
1683007,1501590,1287469
1683029,1500909,1288454
1682988,1500582,1288879
1682918,1500315,1289371
1683045,1500370,1289604
1683269,1500259,1289755
1683614,1500022,1290010
1683359,1499743,1289959
1683751,1499267,1290463
1683191,1499068,1291068
1683536,1498510,1291843
1683299,1498220,1292009
1683131,1498008,1292231
1683131,1497629,1292442
1682941,1496970,1292900
1683126,1496642,1293842
1683212,1496400,1294562
1683360,1495706,1293674
1683142,1495201,1293480
1683018,1494539,1293021
1682805,1494570,1292205
1683184,1494149,1289743
1682974,1493647,1287558
1683299,1493276,1285093
1683145,1492644,1282576
1683080,1492923,1280717
1683009,1493043,1276161
1683266,1492879,1274919
1683457,1492767,1273133
1683499,1492176,1272433
1683561,1491628,1272887
1683702,1491045,1272260
1683637,1490445,1271143
1683549,1490316,1271210
1682992,1489782,1271127
1682992,1489359,1271935
1682884,1488896,1271814
1682788,1488591,1272215
1682943,1488321,1271554
1682868,1487873,1271706
1683161,1487021,1270618
1682895,1486235,1271453
1682339,1485188,1273060
1682588,1484151,1272910
1682478,1482830,1272805
1682640,1482102,1272654
1682169,1480860,1271891
1682248,1480450,1273080
1681875,1480142,1273713
1682067,1480389,1274194
1681977,1480612,1273666
1682237,1480330,1273124
1681880,1479618,1273311
1681676,1478785,1273307
1681279,1477451,1274223
1681169,1476752,1273874
1680634,1475454,1273489
1680239,1474195,1273556
1679812,1472922,1274116
1679812,1471794,1274339
1679855,1470847,1274518
1679396,1470221,1274844
1679510,1469689,1275461
1678984,1469223,1275793
1678973,1468930,1277209
1678425,1468391,1277713
1678522,1468079,1277279
1678152,1467175,1277428
1678003,1466372,1277892
1677709,1464830,1278305
1677493,1463938,1279339
1677049,1463328,1279796
1677212,1461775,1279796
1676829,1461257,1280250
1676291,1461223,1280385
1676319,1460982,1280954
1676045,1461128,1280839
1676141,1461087,1281275
1676380,1460727,1281571
1675865,1460313,1280699
1675434,1459843,1281350
1675632,1459622,1282022
1675527,1459554,1282754
1675352,1459726,1282855
1675591,1459909,1282117
1675454,1459681,1282775
1675256,1459606,1283414
1675365,1459490,1283654
1675441,1459182,1283923
1675381,1458968,1284213
1675863,1458413,1284017
1675586,1457892,1285138
1675552,1457334,1285674
1675403,1457210,1285840
1675459,1457031,1286516
1675227,1456834,1286640
1674957,1455952,1286591
1674957,1454940,1286994
1674966,1454172,1287522
1674858,1453635,1287171
1674822,1452895,1287177
1674552,1452089,1287454
1674364,1451467,1287385
1674283,1450336,1288162
1674128,1449747,1288708
1674033,1448936,1288278
1674043,1448604,1288861
1673912,1447608,1288484
1673459,1447081,1288626
1673547,1445837,1288941
1673506,1445616,1289504
1673825,1445210,1288857
1673807,1444855,1289527
1673701,1444685,1290321
1673785,1444406,1290071
1673042,1444837,1288345
1673294,1445230,1286462
1673354,1446054,1285153
1673213,1446583,1282491
1673213,1447013,1280125
1673018,1447362,1277467
1673290,1447194,1275747
1673397,1446894,1274386
1673299,1446317,1272080
1673106,1444901,1270776
1673002,1443549,1269986
1672722,1443201,1269370
1672639,1442908,1268486
1672709,1443014,1268737
1672752,1443108,1267990
1672632,1443028,1268759
1672545,1443327,1268464
1672645,1443525,1268154
1672474,1442784,1268718
1672596,1441873,1268112
1672434,1441092,1267643
1672206,1440066,1267846
1672064,1439460,1268154
1671780,1439227,1268504
1671734,1439004,1268779
1671619,1438490,1268536
1671619,1437504,1269470
1671200,1436826,1268705
1671118,1436124,1269118
1671163,1434965,1269294
1670798,1433294,1268644
1670786,1431430,1269183
1670233,1429812,1269029
1669625,1426232,1268989
1669306,1424499,1269578
1669171,1422758,1269150
1668740,1421143,1268696
1668424,1419347,1268242
1668003,1417895,1268814
1668042,1416802,1269179
1667619,1415865,1269161
1667888,1414907,1269209
1667648,1414149,1269742
1667385,1413552,1270617
1667127,1412936,1270919
1667217,1412792,1272065
1667046,1412615,1273025
1666850,1412396,1273871
1666184,1411932,1274495
1666184,1411484,1275036
1666301,1410871,1275800
1665928,1410301,1276680
1665946,1409870,1276971
1665989,1409495,1276754
1665635,1408932,1277608
1665287,1408395,1277973
1665251,1408488,1278684
1665048,1408835,1279209
1665188,1409091,1279979
1665134,1409366,1280014
1665054,1409614,1280497
1664902,1410270,1283145
1665202,1411069,1283279
1665323,1413871,1283385
1665568,1415493,1282593
1665614,1415850,1283035
1665244,1413850,1283680
1665309,1413271,1284602
1665869,1413253,1285115
1665388,1413280,1286169
1665120,1413290,1286393
1665243,1413825,1286489
1665328,1414137,1286772
1665416,1414280,1287968
1665438,1414322,1287802
1665171,1413659,1288728
1665226,1413241,1289302
1665320,1412828,1289556
1665294,1411980,1290464
1665462,1411022,1290781
1665486,1409488,1290973
1665093,1407885,1291671
1665020,1406566,1292099
1664909,1405715,1292934
1665095,1405058,1293634
1664489,1404952,1294194
1664322,1404691,1294005
1664322,1404687,1295408
1664072,1405056,1295888
1664566,1406197,1295945
1664521,1406447,1297356
1664559,1406455,1297145
1664431,1406431,1297546
1664318,1406274,1298672
1664382,1406016,1299222
1664509,1405680,1299562
1664430,1405995,1298784
1664581,1406368,1299940
1664257,1406364,1300258
1664499,1406973,1300014
1664464,1407828,1298942
1665110,1409245,1297780
1664792,1410364,1296474
1664941,1411526,1294528
1665217,1412271,1291778
1665470,1413232,1289888
1665455,1414164,1287450
1665385,1414936,1286075
1664974,1415632,1283761
1664974,1416230,1282891
1665108,1417060,1282468
1664882,1417558,1282255
1664874,1418379,1282141
1664910,1418881,1282318
1665244,1419634,1282812
1665134,1422011,1282842
1665331,1423740,1282608
1665397,1425214,1282541
1665664,1426924,1283307
1665789,1428780,1283165
1665831,1430308,1283370
1665947,1431635,1282546
1666159,1432793,1284033
1666231,1433826,1284113
1666641,1434871,1285191
1666409,1436195,1284987
1666802,1437454,1285652
1666973,1439123,1285776
1667288,1441001,1285614
1667324,1443311,1286202
1667290,1445759,1286178
1668227,1454291,1285239
1668883,1458797,1285395
1669317,1463311,1285448
1670004,1468560,1285420
1670135,1473211,1285751
1670544,1477172,1286423
1671219,1481083,1286981
1671650,1484305,1287104
1672013,1487220,1287704
1672500,1490087,1289158
1672743,1491801,1290089
1673194,1493882,1290432
1673570,1495718,1290620
1673978,1497201,1291025
1674613,1498275,1292153
1674752,1498926,1293371
1674663,1499534,1294169
1674952,1498124,1294256
1674797,1494791,1295337
1675160,1492840,1295966
1675190,1493214,1296338
1675132,1493802,1297469
1674992,1494187,1297221
1674948,1494481,1297161
1675362,1493578,1297997
1675266,1493470,1298249
1675962,1495317,1299133
1676331,1498473,1300115
1676813,1502169,1300419
1677322,1504198,1300776
1677679,1504426,1301930
1678084,1504123,1302431
1677865,1503725,1302673
1677417,1502569,1303401
1677448,1500969,1303834
1677582,1499601,1303578
1677429,1497660,1304308
1677342,1496053,1305213
1677124,1493147,1304979
1676740,1490631,1305321
1676778,1488724,1305313
1676648,1486615,1305830
1676733,1484996,1307356
1676446,1483496,1307399
1676261,1482552,1307680
1676475,1481805,1307057
1676387,1481237,1308258
1676136,1481019,1308009
1675849,1481300,1308734
1675440,1481489,1308668
1675230,1482027,1309482
1675433,1482912,1309481
1675645,1483632,1309690
1675559,1484134,1310492
1675718,1483916,1311486
1675202,1483931,1310668
1675025,1483547,1311838
1675277,1483274,1311383
1674730,1483440,1311560
1674819,1483829,1311956
1674538,1483911,1312500
1674478,1484147,1313519
1674371,1484337,1313329
1674735,1484798,1312895
1674787,1484392,1312561
1674983,1484157,1310617
1674901,1483994,1308746
1674786,1484263,1306661
1674820,1484927,1304727
1674727,1487867,1303090
1675097,1490491,1301768
1675198,1491402,1297737
1675387,1491985,1296160
1675571,1492607,1295751
1675194,1493164,1295212
1675174,1493494,1295091
1675423,1494176,1295177
1675517,1494780,1295370
1675540,1494979,1296362
1675791,1494302,1295978
1675419,1492990,1296550
1675337,1491434,1297166
1675319,1489360,1298300
1675185,1486846,1297913
1675330,1484033,1298044
1675027,1481347,1298194
1674928,1478663,1299140
1674468,1476332,1300014
1674208,1474323,1300439
1674255,1473153,1300339
1673767,1472378,1301100
1673767,1472313,1300612
1673617,1472832,1300513
1673583,1474168,1298670
1673755,1476104,1298159
1673834,1478124,1298279
1674186,1479378,1296874
1673911,1480479,1297171
1674625,1481702,1297159
1674572,1481831,1297114
1674694,1482271,1297435
1674663,1482520,1296635
1674915,1482230,1297296
1674615,1481789,1297748
1674723,1481010,1297079
1674765,1479652,1298441
1675013,1477864,1298739
1674729,1476057,1299566
1674473,1473876,1299277
1674255,1471703,1300554
1673904,1466479,1301928
1673522,1463921,1302065
1673253,1463933,1301939
1673233,1463605,1302326
1673317,1463741,1303311
1673122,1464357,1304133
1672997,1465270,1304445
1673025,1466056,1304788
1673436,1466894,1304866
1673231,1467499,1305733
1673521,1467993,1306236
1673454,1467684,1305656
1673400,1467741,1306020
1673588,1468197,1306152
1673846,1468240,1306825
1673922,1468002,1306307
1674048,1467606,1306380
1673673,1466872,1306634
1673632,1465908,1306990
1673385,1465052,1306639
1673407,1464491,1306648
1673032,1463721,1307254
1672755,1463013,1307918
1672755,1462746,1308121
1672406,1462728,1308119
1672618,1463453,1307494
1672484,1464002,1308179
1672254,1463775,1308220
1672111,1463503,1308329
1672036,1463001,1308595
1671870,1463097,1308961
1671888,1463702,1308847
1671830,1464327,1309320
1672055,1465169,1309664
1671654,1465425,1310265
1671793,1465862,1311412
1671820,1465697,1309655
1672412,1465489,1303681
1672395,1465316,1298536
1672389,1465679,1296681
1672280,1465945,1294851
1672523,1466650,1292351
1672614,1467205,1291547
1672682,1468198,1290327
1672266,1468838,1290327
1672266,1469313,1291168
1672498,1469810,1290747
1672590,1470402,1290436
1672578,1470683,1290916
1672635,1471646,1291762
1672918,1472510,1292521
1673148,1474297,1293220
1673472,1474902,1292650
1673040,1474868,1291934
1673489,1474517,1293085
1673352,1474363,1293090
1673431,1474365,1293584
1673172,1474445,1294110
1673472,1474790,1294367
1673260,1474842,1295153
1673718,1475597,1294899
1673737,1476782,1295572
1674069,1479140,1295188
1674105,1479228,1295482
1674186,1478424,1294954
1674069,1477520,1294834
1674031,1476625,1294777
1673868,1476155,1294777
1673754,1475862,1294545
1673538,1475514,1293863
1673799,1475710,1293153
1673770,1475585,1293119
1673800,1475337,1293414
1673679,1475136,1294255
1673667,1475225,1295282
1673746,1475428,1295518
1674237,1476198,1296209
1674574,1476783,1296846
1674625,1477478,1297770
1674658,1477950,1298132
1674980,1478717,1297646
1674863,1479682,1298500
1675097,1480086,1298997
1674917,1480357,1299799
1674627,1479525,1301067
1674627,1478534,1301301
1674728,1476916,1301831
1674516,1475400,1302044
1674577,1473970,1302276
1674420,1471857,1303003
1674144,1470518,1303648
1673466,1468035,1303963
1673503,1466942,1303994
1673534,1466025,1304072
1673261,1465486,1304422
1673176,1464521,1304745
1673074,1464214,1304586
1673089,1464457,1303928
1673327,1465891,1304468
1673059,1465952,1305359
1672381,1462509,1305095
1672129,1458509,1305445
1671586,1458104,1306001
1671476,1457521,1305943
1671263,1457771,1305127
1671191,1458184,1306054
1671105,1458555,1306300
1671169,1458974,1306066
1671361,1459369,1306306
1671510,1460251,1306899
1671564,1461290,1307072
1671398,1462448,1307706
1671531,1463441,1307945
1671674,1464288,1308337
1671865,1464369,1308339
1672026,1464585,1308476
1672290,1464965,1309140
1672237,1465307,1308819
1672097,1465723,1308791
1672253,1466189,1308887
1672245,1467005,1308103
1672083,1467599,1308311
1672083,1468212,1307871
1672020,1468524,1306550
1672035,1468386,1304402
1672089,1468304,1300228
1672140,1468003,1298268
1672014,1467031,1295405
1672191,1466551,1292866
1671952,1466749,1290342
1671990,1466609,1288719
1671925,1466675,1287426
1672089,1466388,1287102
1671980,1466664,1287110
1671853,1466558,1286388
1671711,1466853,1285690
1672004,1467545,1287147
1671898,1468214,1287196
1672357,1469238,1287997
1672432,1470098,1288478
1672412,1471524,1288272
1672560,1473201,1288823
1672947,1475569,1288181
1673366,1478063,1288680
1673479,1481351,1288649
1673353,1484219,1288910
1673353,1486894,1288906
1674011,1488628,1288837
1674393,1489884,1289184
1674831,1491096,1289559
1674782,1491001,1290095
1675021,1490568,1289687
1675028,1488372,1290090
1674908,1486281,1289354
1674635,1483916,1290005
1674529,1481346,1289880
1673981,1478346,1289600
1673817,1474829,1288532
1672943,1471139,1289812
1672848,1467170,1289005
1672550,1463676,1289058
1672447,1460498,1289751
1672247,1458132,1291049
1672190,1457263,1290899
1672298,1458258,1291799
1672251,1460209,1291677
1672313,1462718,1292208
1672501,1464789,1293482
1672501,1466643,1294348
1672540,1468195,1294635
1672857,1468924,1294801
1672830,1469594,1295159
1673458,1469507,1295573
1673408,1468628,1296566
1672937,1464966,1296371
1672452,1462916,1296445
1672361,1460727,1296623
1672048,1458606,1297091
1671510,1456548,1297041
1671355,1454903,1297745
1671031,1454087,1298054
1670918,1454419,1298043
1671116,1455434,1298395
1671375,1456973,1297796
1671565,1459065,1297642
1671561,1461384,1297553
1671637,1463900,1297786
1671824,1466561,1297955
1672027,1469289,1297979
1672024,1471172,1297925
1672224,1473092,1298550
1672224,1474126,1298553
1672296,1474241,1298217
1672530,1474118,1299126
1672455,1473010,1299066
1672481,1471420,1300029
1672197,1470119,1300442
1672175,1468905,1300488
1671946,1469177,1300636
1672226,1470219,1301727
1672187,1471490,1301751
1672489,1473494,1302198
1672554,1475200,1302266
1673161,1477512,1302084
1673300,1479816,1302122
1673958,1482227,1302242
1674081,1484287,1303047
1674385,1486114,1303811
1674494,1487246,1303309
1674757,1488364,1303413
1674850,1488438,1303192
1674745,1488461,1302994
1674559,1487152,1303943
1674559,1485788,1303528
1674336,1483899,1302542
1674169,1481903,1300970
1674183,1479772,1299060
1673981,1478002,1297130
1673773,1476414,1294802
1673213,1475995,1292053
1673430,1476691,1289791
1673456,1477445,1287593
1673861,1478831,1285947
1673959,1480717,1284655
1674102,1482949,1283641
1674102,1485632,1283260
1674720,1488554,1283738
1675112,1491081,1283454
1675699,1493334,1283591
1675831,1494823,1284246
1676369,1496017,1284967
1676306,1497030,1285294
1676759,1497494,1285548
1676784,1496962,1285239
1676613,1496356,1285775
1676613,1494577,1286036
1676278,1492382,1286478
1676367,1489613,1286304
1675771,1486818,1286932
1675460,1484156,1286176
1675137,1481498,1287223
1674374,1477323,1287684
1674233,1476245,1287353
1673862,1476171,1287513
1674017,1477313,1287520
1674286,1478922,1287131
1674167,1480503,1287460
1674254,1483159,1287097
1674767,1486615,1286036
1675353,1490005,1286651
1675872,1493716,1286572
1676509,1497633,1286433
1676680,1500882,1286307
1677240,1504355,1287036
1677762,1507608,1287048
1678363,1511223,1286694
1679084,1514753,1287388
1679290,1518455,1288349
1679290,1521990,1288841
1679714,1525411,1289115
1680337,1528814,1289830
1681401,1530773,1290169
1681308,1531961,1290466
1681543,1532889,1291439
1682713,1534050,1291403
1682896,1534742,1292364
1683192,1535580,1293013
1683283,1536361,1293549
1683333,1536537,1293516
1683395,1536615,1294635
1683612,1537107,1294988
1683579,1537681,1294939
1684027,1538401,1294947
1684159,1539323,1296009
1684196,1540434,1295787
1684165,1541387,1296090
1684476,1542684,1296131
1684293,1543128,1296163
1684449,1544284,1296061
1684048,1544950,1296856
1684048,1546127,1297425
1684037,1546842,1297234
1684337,1547831,1297322
1684514,1548567,1298396
1684775,1549407,1298389
1684875,1550581,1298361
1685307,1553851,1299408
1685326,1555897,1299328
1685719,1557457,1299896
1685859,1558703,1299931
1685867,1558795,1300226
1685972,1558946,1300234
1685829,1559478,1301600
1686142,1560111,1302220
1686351,1560517,1302074
1686609,1560940,1302819
1686642,1561197,1302466
1686686,1561430,1302660
1686794,1561544,1303139
1686609,1561852,1304326
1686920,1561447,1305055
1686828,1560920,1304493
1686401,1559437,1305306
1686401,1558245,1305897
1686412,1557565,1306106
1686559,1556827,1306507
1686331,1556615,1306312
1686495,1556126,1306279
1686379,1556058,1306325
1686495,1555995,1305224
1686514,1556100,1302845
1686373,1555906,1300461
1686485,1555824,1298332
1686948,1559225,1296628
1687891,1563598,1291842
1688209,1565009,1289403
1688094,1565843,1289403
1688358,1566493,1288878
1688238,1566715,1288297
1688776,1567711,1288326
1688962,1568457,1288253
1688615,1569542,1288402
1688729,1570577,1288791
1689017,1571448,1288791
1689419,1571893,1289720
1689394,1572458,1289848
1689304,1572037,1290967
1689263,1571413,1290872
1689076,1570874,1291637
1689536,1570937,1291607
1689514,1570766,1291388
1690222,1571090,1291653
1690031,1572217,1292269
1690587,1572964,1292384
1690340,1574529,1293250
1690482,1575801,1293623
1690717,1577276,1293308
1690738,1578681,1294115
1690738,1579029,1294487
1690522,1579993,1294755
1690861,1580199,1295005
1690914,1580908,1294934
1691409,1581477,1294918
1691445,1581833,1295142
1691551,1582770,1295381
1692063,1584518,1295726
1692439,1585711,1295066
1692466,1586505,1295661
1692776,1587004,1295531
1692512,1586825,1296423
1692358,1586474,1297515
1692420,1586613,1297986
1692645,1586477,1298310
1692629,1585970,1298237
1692692,1585841,1298940
1692483,1585236,1300152
