GREEN,RED,IR
1775541,1533410,1182292
1775587,1533500,1181775
1775739,1533277,1181962
1775563,1533280,1181381
1775628,1532371,1181550
1775253,1531895,1182476
1775476,1531373,1182281
1775364,1531120,1182152
1775328,1530523,1182813
1774779,1530166,1182565
1774712,1529649,1182632
1774639,1529260,1182744
1774546,1529264,1182647
1774246,1529425,1181652
1773963,1529629,1182256
1773506,1529285,1181865
1773506,1529090,1181644
1773400,1529092,1182154
1773326,1529432,1181619
1773255,1529526,1182120
1772871,1529506,1183135
1772966,1529307,1182700
1772731,1529628,1182911
1772771,1529997,1183525
1772581,1530093,1183416
1772528,1530093,1183253
1772364,1530282,1184044
1772447,1529901,1183647
1772174,1529880,1183176
1772146,1530031,1183140
1772412,1529736,1183997
1772114,1530000,1184411
1771724,1529328,1184245
1771511,1528976,1185693
1771012,1528808,1186292
1771087,1529119,1186645
1770094,1528964,1186435
1770927,1529181,1186265
1770726,1529382,1186568
1770589,1529979,1186418
1770475,1529722,1186420
1770467,1529194,1187551
1769723,1529505,1187067
1770101,1529733,1187341
1770231,1529545,1186596
1770227,1531071,1187143
1770246,1530210,1186616
1770428,1530308,1187499
1769912,1530196,1188017
1770145,1530490,1187944
1770048,1530511,1188924
1769947,1531786,1190088
1770027,1530663,1190333
1770416,1531016,1190625
1768612,1531048,1190732
1768612,1530971,1191135
1769505,1530964,1191135
1769431,1532124,1189632
1769709,1531438,1190036
1769666,1531148,1190258
1769578,1530874,1189627
1769396,1531151,1189336
1769639,1532154,1189591
1769504,1531549,1188946
1769627,1531805,1188117
1768179,1531825,1187562
1769033,1531651,1186631
1769110,1531316,1186856
1769223,1532529,1186050
1769344,1532067,1185630
1769647,1532148,1185622
1768440,1532431,1184962
1769321,1532106,1184655
1769350,1532581,1185974
1769280,1533396,1185425
1769464,1533260,1185242
1768956,1533642,1185068
1767777,1533450,1184391
1767777,1533701,1185544
1768572,1533029,1184582
1768723,1533379,1184395
1768940,1532410,1184395
1768792,1531444,1183546
1767428,1530625,1183752
1767622,1530167,1184455
1767403,1530175,1183698
1767032,1529335,1184466
1766885,1529163,1183251
1765953,1528367,1184194
1766025,1528193,1183885
1765835,1528210,1185718
1765481,1527915,1183926
1765003,1527466,1184647
1764132,1527117,1183889
1764817,1527177,1184350
1764951,1527088,1184557
1764734,1526875,1184877
1763337,1526890,1183467
1763925,1526953,1183628
1763827,1526910,1183558
1763902,1527071,1183094
1763697,1526832,1184599
1763409,1526749,1184209
1762524,1526667,1184013
1763037,1526822,1183785
1763140,1526787,1184847
1763255,1527068,1184220
1763092,1526924,1185568
1762888,1526999,1184667
1762666,1526775,1185156
1762841,1527051,1185341
1762702,1527059,1185754
1762256,1527463,1186431
1762152,1526925,1186298
1762152,1527372,1186125
1762189,1526886,1186034
1762331,1527642,1185753
1762338,1527462,1186766
1762063,1527144,1186032
1761656,1527475,1187118
1761718,1527611,1185456
1761764,1527949,1186492
1761805,1527798,1186407
1761668,1528030,1186581
1761571,1527484,1187619
1761220,1527778,1186319
1761463,1527971,1186601
1761514,1528199,1186461
1761921,1528058,1186555
1761557,1528006,1187067
1761524,1527838,1188192
1761484,1527840,1186826
1761291,1527560,1186666
1761710,1527682,1186732
1761619,1527972,1187656
1760991,1528045,1188103
1760991,1527846,1188522
1761101,1528293,1187861
1761148,1527921,1188475
1761141,1528397,1188361
1761104,1527817,1188904
1760967,1527755,1187532
1760921,1527486,1188406
1760869,1527611,1188059
1760878,1527810,1188731
1760796,1527488,1189081
1760808,1527652,1188057
1760757,1527174,1188758
1760792,1527782,1188766
1760945,1527366,1189196
1760990,1527783,1188810
1761039,1527490,1188803
1760907,1527247,1188619
1761183,1526881,1188540
1761038,1527445,1188950
1761234,1527402,1189687
1761090,1527834,1189398
1760857,1527920,1189696
1760857,1528053,1189517
1760953,1527912,1189912
1761015,1528230,1189820
1760671,1528020,1189751
1760786,1527659,1189620
1760980,1527412,1190189
1760826,1527780,1189804
1761009,1527919,1190305
1760836,1528385,1189420
1761084,1528409,1190262
1760836,1528855,1191504
1761007,1528531,1190481
1760783,1528181,1191172
1760684,1527742,1191072
1760682,1527405,1190973
1760890,1526558,1190548
1760781,1526064,1191612
1760308,1525152,1190881
1760041,1524444,1191372
1759934,1523926,1191032
1759602,1523553,1192196
1759070,1523330,1191967
1758564,1523163,1192551
1758564,1522851,1191725
1758424,1522715,1192108
1758020,1522619,1191639
1757796,1522412,1192064
1757535,1521893,1190712
1757493,1521817,1189751
1756918,1522174,1189794
1756838,1522206,1190000
1756651,1522276,1189327
1756575,1522168,1187047
1756380,1522160,1187212
1756316,1521575,1186443
1755830,1521813,1186369
1756085,1521714,1186041
1756047,1522085,1185724
1755997,1521950,1185132
1755658,1522084,1186053
1755542,1521802,1185819
1755231,1522156,1185067
1755314,1522040,1185097
1754741,1522614,1185916
1754179,1522834,1185662
1753717,1523238,1185533
1753860,1523232,1185739
1753587,1523798,1185891
1753424,1523593,1185421
1753141,1523647,1185205
1753290,1523483,1184827
1753309,1523597,1184899
1753186,1523634,1185255
1752936,1523649,1185890
1752790,1523810,1185301
1752765,1523866,1185261
1752990,1524015,1185385
1753041,1524212,1184655
1752931,1524241,1184679
1752758,1524113,1184693
1752641,1523564,1185152
1752851,1524241,1184419
1752616,1524573,1184208
1752094,1524692,1184142
1752094,1524526,1184332
1752213,1524774,1183494
1752289,1524679,1184458
1752224,1524716,1183921
1752263,1524689,1184090
1752250,1524548,1183572
1752087,1524722,1184203
1752146,1524928,1184718
1752022,1524887,1184151
1752130,1525236,1183753
1752083,1525126,1183781
1752000,1524771,1184498
1751892,1525048,1184674
1751543,1525366,1184529
1752073,1525406,1184445
1752227,1525463,1184758
1752036,1525551,1185140
1752458,1525589,1184695
1752375,1525799,1184951
1752354,1526018,1185657
1752071,1526406,1185132
1751823,1526464,1184598
1751823,1526822,1185036
1751653,1527005,1185678
1752011,1527464,1185119
1751741,1527579,1185556
1751782,1527973,1185483
1751770,1527635,1185938
1751719,1528305,1185852
1751561,1528597,1186255
1751523,1530151,1186416
1751232,1529874,1185500
1751385,1529630,1185539
1751284,1529273,1185926
1751492,1529383,1186558
1751530,1529520,1186558
1751503,1529813,1186196
1751901,1530041,1186711
1752114,1530821,1186544
1751742,1530409,1186670
1751709,1530012,1186843
1752080,1530257,1187563
1752144,1530848,1187474
1752353,1530424,1188024
1752070,1530855,1187495
1751466,1530960,1187737
1752217,1530990,1187996
1752116,1530933,1188611
1752325,1532387,1188565
1752151,1531742,1188326
1752324,1530955,1188779
1751740,1530729,1189274
1752532,1530885,1189339
1752526,1531103,1189652
1752795,1532703,1188801
1752752,1531487,1189371
1752745,1531407,1189335
1752434,1531584,1188915
1752880,1531867,1190048
1752750,1532030,1189943
1752953,1533700,1190213
1752509,1532273,1190080
1752509,1531768,1190556
1752522,1530817,1190587
1752617,1530389,1190031
1752573,1529588,1190136
1752577,1530359,1190068
1752154,1529179,1190020
1751580,1528430,1191245
1750749,1527848,1191152
1751175,1527443,1191224
1750933,1527543,1190532
1750805,1528445,1190564
1750598,1527168,1191071
1750243,1526702,1191172
1749564,1526650,1190757
1750155,1526398,1189857
1750214,1526466,1190397
1750112,1527972,1190460
1749846,1526927,1189371
1749891,1526719,1188008
1749415,1526859,1188034
1749816,1526722,1186517
1749575,1526756,1185969
1748948,1527999,1185410
1748948,1526796,1185481
1749114,1526484,1184502
1749053,1526253,1184890
1748752,1526554,1184018
1748694,1526525,1184029
1748919,1527533,1183989
1748539,1526976,1184496
1748168,1526955,1184582
1747822,1526692,1183984
1748237,1526711,1183361
1748103,1526230,1184140
1747923,1527666,1184211
1747889,1525946,1183579
1747635,1525984,1182861
1747034,1525799,1182830
1747532,1525944,1183170
1747712,1526077,1183134
1747567,1527725,1182743
1747643,1526247,1183191
1747463,1525942,1182953
1746742,1526108,1183225
1746953,1526397,1183733
1746556,1526449,1182509
1746556,1528174,1183188
1746688,1527106,1182997
1746677,1527038,1182416
1746631,1526977,1182466
1746716,1527473,1183097
1746695,1527064,1182541
1746419,1527618,1183359
1746317,1527732,1182130
1746333,1527578,1182363
1746373,1527832,1182008
1746398,1527620,1183674
1746225,1528018,1182632
1746176,1527667,1182765
1746208,1528088,1181720
1746620,1528063,1182517
1746810,1528550,1182256
1746484,1528227,1182927
1746517,1528072,1183627
1746797,1527884,1182955
1746508,1528281,1182834
1746659,1528278,1182913
1746386,1528933,1184473
1746386,1528724,1182888
1746106,1529233,1183766
1746255,1529137,1183132
1746448,1529373,1183807
1746425,1529451,1183875
1746229,1529371,1184231
1746084,1529333,1184088
1746615,1529553,1183967
1746380,1530157,1184464
1746568,1530200,1184015
1746568,1530500,1184190
1746703,1530120,1184407
1746343,1530185,1184470
1746514,1530394,1184493
1746599,1530429,1184076
1746985,1530422,1185034
1746928,1530725,1185409
1746888,1530521,1185119
1746796,1530554,1185969
1746941,1531020,1185841
1747170,1531044,1186160
1746935,1531349,1185671
1746962,1531749,1186560
1746962,1531516,1186482
1746921,1531656,1187101
1746797,1532007,1186189
1746956,1532034,1188337
1746939,1531696,1187448
1746990,1531928,1188796
1747230,1532098,1188087
1747315,1532455,1188336
1747214,1532687,1188089
1747331,1532887,1189808
1747483,1532752,1189746
1747513,1532331,1190254
1747298,1532729,1190175
1747517,1532761,1191639
1747755,1533295,1190828
1747927,1533228,1191878
1747630,1533452,1191894
1747863,1533324,1191645
1747917,1533607,1192129
1748041,1534125,1192627
1747904,1534475,1192812
1747921,1534503,1192682
1747921,1534556,1193821
1747745,1534812,1192547
1748111,1534746,1193850
1748086,1535025,1193961
1748072,1535254,1194358
1747984,1535063,1193926
1748202,1535519,1193823
1747910,1535587,1192511
1748045,1535424,1192307
1748009,1534799,1192594
1747851,1533863,1191305
1747657,1532931,1191286
1747503,1532181,1190070
1747214,1531829,1189650
1747283,1530843,1189650
1747280,1530899,1189493
1746993,1530592,1188523
1746719,1530239,1187048
1746562,1529973,1187434
1746348,1530110,1186967
1746274,1529917,1186721
1745913,1530524,1186598
1745739,1530285,1186379
1745739,1530037,1186324
1745612,1530233,1186700
1745986,1530231,1186533
1745812,1529979,1187150
1745663,1529921,1185946
1745542,1530176,1185525
1745476,1530117,1185116
1745165,1530611,1184749
1745304,1530656,1185572
1745091,1530902,1184297
1745204,1530170,1183856
1745009,1530000,1184397
1745052,1530051,1184014
1745026,1529917,1183323
1745294,1529864,1183617
1745235,1529850,1182412
1745209,1529473,1182005
1744936,1529452,1181684
1745091,1529483,1181851
1744897,1529311,1181904
1744774,1529349,1182051
1744167,1529066,1181759
1744167,1528721,1181110
1744309,1528570,1181046
1744247,1528422,1180810
1744434,1528592,1180762
1744247,1528293,1180592
1744287,1528187,1180220
1743855,1528708,1179851
1744022,1529033,1180290
1743879,1528849,1180609
1744064,1529168,1180482
1743901,1529359,1179875
1743831,1529097,1180713
1743598,1529377,1180631
1743628,1529630,1180363
1744037,1529716,1181029
1744295,1530182,1180415
1743978,1530469,1181387
1743933,1530529,1181292
1743800,1531084,1180892
1743856,1531342,1181295
1743851,1531696,1181688
1743708,1532091,1181519
1743708,1532231,1181450
1743734,1532653,1181975
1743924,1532570,1182333
1743717,1532913,1182510
1743909,1533146,1182794
1744068,1533406,1183009
1743838,1533750,1182133
1743464,1533897,1181777
1743761,1533846,1181846
1743957,1534102,1182701
1743731,1534311,1183253
1743937,1534640,1182031
1743647,1534481,1183286
1743431,1534534,1182064
1743825,1534769,1182321
1743990,1534795,1182249
1744067,1535228,1181941
1744206,1535416,1183214
1743996,1535725,1182534
1743723,1535818,1182108
1743938,1536205,1181249
1744035,1536921,1181861
1743640,1537191,1182700
1743546,1537697,1183773
1743546,1538031,1183226
1743707,1538453,1183935
1743433,1539160,1183490
1743505,1539260,1183869
1743652,1539416,1183083
1743230,1540050,1183153
1743336,1540236,1182812
1743523,1540306,1182004
1743647,1540903,1181225
1743587,1540994,1180897
1743428,1541029,1179387
1743239,1541418,1179958
1743297,1541740,1177400
1743661,1542066,1176974
1743754,1542281,1175966
1743584,1542091,1175513
1743577,1541831,1176125
1743365,1541703,1175266
1743209,1541265,1175113
1743040,1540954,1174416
1742510,1540542,1174040
1742510,1540086,1173086
1742362,1539467,1174294
1742019,1539238,1173654
1741694,1539116,1173316
1741565,1538590,1172460
1741542,1538370,1172083
1740861,1538345,1171374
1740578,1538484,1172696
1740418,1538570,1171716
1740694,1538693,1171212
1740303,1538775,1170504
1740387,1538542,1170887
1740124,1538550,1170675
1740200,1538664,1170107
1740381,1538742,1170423
1740367,1539054,1169585
1740288,1539180,1170731
1739900,1539645,1169709
1739592,1539702,1170811
1739271,1539026,1170292
1739747,1539187,1170416
1739752,1538826,1169310
1739240,1539187,1169561
1738824,1539214,1169100
1739007,1539283,1170189
1738861,1539146,1169302
1739094,1539321,1169335
1738789,1539212,1169062
1738666,1538891,1168759
1738400,1538815,1169773
1738520,1539030,1169032
1738424,1538952,1169607
1738813,1539350,1169792
1738598,1539030,1169338
1738452,1539244,1169442
1738513,1539045,1168480
1738529,1539661,1168975
1738826,1539861,1169388
1738425,1540287,1168732
1738184,1540089,1170224
1738184,1540406,1169219
1738163,1540596,1169952
1738434,1540662,1169694
1738415,1540774,1169689
1738482,1541214,1168360
1738275,1541331,1169263
1738134,1541828,1168383
1738037,1542603,1169414
1737989,1542528,1169288
1737982,1543076,1170329
1738456,1542823,1168889
1738075,1543281,1169571
1738154,1543537,1169405
1738227,1544164,1170016
1737893,1543342,1168572
1738557,1543920,1169328
1738454,1543860,1169349
1738631,1544316,1168810
1738485,1544331,1169403
1738583,1544364,1170073
1738259,1544683,1170322
1738421,1544779,1170807
1738174,1545057,1171427
1738436,1544828,1171464
1738344,1545418,1172360
1738664,1546216,1171383
1738310,1545803,1172674
1738158,1543670,1173005
1737367,1541789,1173454
1737600,1541569,1174685
1736766,1541341,1174795
1736336,1541004,1174112
1736056,1540938,1173891
1735914,1540528,1173231
1735672,1540277,1173819
1735699,1540303,1172562
1735410,1540208,1171998
1735068,1539851,1171217
1735068,1540126,1170819
1735300,1540061,1170311
1735138,1540330,1169372
1735342,1540609,1169675
1735081,1540394,1169299
1735416,1540348,1169089
1735391,1540639,1167253
1735096,1540957,1169136
1734647,1541129,1168612
1734461,1541380,1169066
1734461,1541310,1168237
1734352,1541239,1169413
1734492,1541239,1168600
1734431,1541156,1168369
1734341,1540757,1169619
1734063,1540908,1169619
1734081,1540694,1169927
1733945,1540693,1170174
1733863,1540307,1169851
1733826,1540474,1169655
1733593,1540022,1169685
1733158,1539868,1172298
1733635,1540442,1173104
1733573,1540222,1174136
1733154,1540501,1174928
1732990,1541012,1175071
1733231,1541144,1175017
1733354,1541702,1176201
1732720,1541682,1176805
1732875,1541771,1177219
1732918,1541792,1178110
1732838,1541928,1178738
1733118,1542037,1179379
1733037,1541905,1178310
1732939,1541712,1177847
1732854,1542020,1178668
1733075,1542200,1178306
1733068,1542473,1178827
1733544,1542968,1179149
1733364,1542604,1179809
1733530,1542337,1179190
1733206,1542614,1180299
1733331,1542764,1180435
1732976,1543093,1179920
1732956,1543164,1180346
1732956,1543205,1180749
1733278,1543245,1180478
1733208,1543744,1180129
1733064,1544010,1180494
1733158,1543432,1181233
1733147,1543419,1181121
1733401,1543656,1181822
1733298,1544046,1181021
1733468,1544245,1182257
1733228,1544405,1181297
1733220,1544303,1181710
1733276,1544005,1180947
1733571,1544343,1180517
1733547,1544296,1180906
1733941,1544362,1181377
1733973,1544399,1181958
1734102,1544505,1182229
1734029,1544679,1182359
1733704,1545095,1181865
1733973,1545173,1182145
1733919,1545631,1182776
1733618,1545600,1182808
1733618,1545798,1182675
1733741,1545783,1182849
1733794,1546014,1183038
1733498,1545841,1182051
1733935,1545581,1182491
1734071,1545277,1181930
1733777,1544284,1181073
1732990,1544044,1180158
1732919,1541775,1179917
1731672,1540101,1179360
1731172,1539816,1179126
1730362,1539690,1178654
1730661,1540223,1177858
1730660,1540012,1177307
1730726,1539763,1177381
1730092,1539867,1176093
1731424,1540003,1176553
1730744,1540341,1175667
1730017,1540800,1176179
1729950,1540431,1175826
1729891,1540707,1175819
1729533,1540568,1175991
1730486,1540516,1175440
1730259,1540195,1175312
1729569,1540376,1175883
1729491,1540004,1175017
1729468,1539979,1175106
1729040,1539881,1175079
1729767,1539710,1175672
1729395,1539538,1175147
1729135,1539516,1175388
1729008,1539590,1174392
1729175,1539614,1175680
1728502,1539985,1175089
1728662,1540018,1174851
1728662,1539912,1175396
1728481,1540199,1175971
1728577,1540201,1175406
1728611,1540376,1174169
1728583,1540266,1175497
1728110,1539917,1174839
1728392,1541055,1175596
1728207,1541473,1174800
1728207,1541001,1175483
1727815,1541262,1175156
1728340,1541551,1175671
1728122,1541452,1175783
1728223,1541855,1176781
1728426,1541728,1177176
1728379,1541679,1177530
1728300,1541824,1178218
1728526,1541853,1179179
1728726,1541848,1179850
1728598,1542333,1180051
1728703,1542473,1179815
1728378,1542891,1179815
1727907,1542986,1179895
1727907,1542954,1179504
1728279,1542999,1180396
1728304,1543071,1180181
1728163,1543205,1180018
1728229,1542984,1181643
1728426,1543106,1181250
1728466,1543427,1181129
1728222,1543827,1181225
1728283,1543946,1182055
1728584,1543936,1181282
1728288,1544120,1181950
1728294,1543986,1181619
1728254,1543963,1182122
1728393,1544217,1182319
1728897,1544127,1182990
1729101,1544303,1182376
1728925,1544681,1182905
1729065,1544446,1183190
1728994,1544692,1184146
1729128,1544846,1183253
1729275,1545320,1184472
1728837,1545693,1184962
1728837,1545779,1185094
1728807,1545632,1185641
1728913,1545815,1185789
1729152,1545908,1186377
1729187,1545874,1185572
1728938,1545382,1186529
1728848,1545736,1185753
1729132,1546193,1185784
1729347,1546574,1185008
1729371,1546653,1185539
1729431,1547030,1184387
1729480,1546921,1184453
1729521,1546770,1183785
1729585,1547358,1183690
1729763,1547366,1183554
1729901,1547428,1184509
1729932,1547455,1183296
1730154,1547423,1184179
1730148,1547045,1183527
1729826,1547238,1183820
1729890,1546645,1183665
1729563,1546399,1183388
1729016,1545599,1183969
1729016,1545062,1183852
1728939,1544201,1184305
1729055,1543952,1184053
1728824,1543070,1184121
1728288,1541909,1184110
1727808,1541951,1184567
1727251,1541735,1184530
1727126,1542069,1184902
1726797,1541866,1184564
1726795,1542026,1185880
1726745,1541957,1185851
1726463,1541746,1186019
1726599,1541546,1185854
1726643,1541827,1186821
1726686,1541899,1186828
1726501,1541771,1186860
1726356,1541761,1185456
1726206,1541828,1185410
1726165,1542026,1185719
1726200,1542249,1185916
1725935,1542461,1186531
1725695,1542544,1187038
1725695,1542357,1186633
1725752,1542494,1186836
1725709,1542197,1186788
1725580,1542474,1186737
1725443,1541829,1187574
1725523,1541494,1187213
1725298,1541652,1187167
1725332,1541880,1186776
1725036,1541739,1187528
1725147,1541680,1187019
1724736,1541367,1187500
1724701,1541095,1187203
1724595,1541439,1188414
1724611,1541115,1187597
1724796,1541426,1188432
1725032,1541041,1188780
1724674,1541258,1188763
1724926,1541044,1188074
1724846,1541583,1188093
1724900,1541429,1188599
1724631,1542066,1189571
1724557,1541959,1189203
1724557,1542338,1188947
1724369,1542515,1189122
1724448,1542523,1189310
1724555,1542469,1189342
1724647,1542541,1189455
1724327,1542251,1189335
1724531,1542816,1189595
1724270,1542944,1189439
1724376,1543028,1190180
1724430,1543471,1190915
1724708,1543366,1190641
1724377,1543171,1190206
1724680,1543000,1189828
1724513,1543042,1190320
1724717,1542851,1191037
1724971,1542961,1190700
1724925,1542720,1190665
1725178,1542480,1190746
1725065,1542719,1190203
1724991,1542552,1190320
1725040,1543008,1191826
1724573,1543103,1191401
1724573,1543376,1191597
1724749,1543548,1191345
1724823,1543271,1191437
1725058,1543310,1191516
1724661,1543113,1191665
1724776,1543194,1192418
1725026,1543866,1192567
1725046,1543977,1192773
1725143,1543990,1193353
1725184,1544095,1193296
1725296,1544366,1193105
1725038,1544098,1193748
1725234,1544006,1193098
1725493,1543912,1192782
1725600,1544256,1193138
1725708,1544168,1193346
1725609,1544174,1193127
1726235,1543971,1192625
1725984,1543971,1191979
1725995,1544176,1190618
1726141,1544385,1190368
1726093,1544253,1190353
1726093,1544030,1189191
1725972,1543681,1189316
1726121,1543830,1189143
1726301,1543810,1189261
1726397,1543863,1189713
1726348,1543456,1190048
1726805,1543505,1190486
1726631,1543546,1190233
1726601,1543474,1190617
1726710,1543646,1190358
1726942,1543716,1190580
1726675,1543456,1190092
1726884,1543583,1190190
1726941,1543625,1190829
1727113,1543394,1191389
1727407,1543433,1190642
1727181,1543005,1189880
1727001,1542294,1189909
1726810,1541947,1189806
1726373,1541494,1189002
1726287,1541126,1190044
1725684,1540730,1189820
1725153,1539185,1189137
1724701,1539152,1188905
1724534,1539431,1189193
1724429,1539874,1189294
1724023,1540624,1188889
1723393,1541001,1188925
1723406,1541617,1189390
1723250,1542033,1189520
1723207,1542259,1188940
1722834,1542827,1189224
1722597,1542804,1189914
1722273,1544245,1190167
1722106,1544970,1189762
1722079,1545272,1190687
1722234,1546042,1189489
1722792,1546375,1190427
1721897,1546383,1190263
1721806,1546683,1190509
1721876,1546833,1190774
1721687,1547210,1191397
1721424,1547035,1190750
1721424,1546805,1190589
1722563,1546833,1191143
1721606,1547057,1190484
1721124,1546719,1190852
1720989,1546113,1190507
1721116,1545645,1190769
1721375,1545570,1190626
1720908,1545679,1191315
1720906,1544851,1191211
1720704,1544755,1191471
1720612,1544770,1191022
1721804,1544310,1192665
1720642,1544474,1191770
1720388,1544932,1192334
1720512,1544789,1192372
1720719,1545152,1193293
1720629,1545522,1192796
1721590,1545331,1193092
1720884,1545609,1192611
1720754,1546182,1192846
1720842,1546266,1193931
1720494,1546337,1194274
1720494,1546331,1194263
1720087,1546391,1193960
1721311,1546480,1193851
1720717,1546685,1193859
1720604,1546307,1193877
1720890,1545877,1194076
1721619,1546019,1193619
1720863,1546453,1193349
1720759,1546819,1194114
1720643,1546852,1194593
1720688,1546865,1195070
1720207,1546425,1194574
1721060,1546760,1195432
1720841,1547015,1194637
1721385,1547348,1195063
1720714,1546820,1195533
1721432,1547325,1195762
1721794,1547222,1196227
1721912,1547092,1195582
1721172,1547303,1195976
1721997,1547309,1196106
1721712,1547447,1196160
1721860,1547659,1196231
1721772,1547819,1196065
1721896,1547424,1195719
1721629,1547332,1196501
1722025,1547688,1196312
1721796,1547693,1196960
1722471,1547737,1196612
1722645,1547677,1196221
1722606,1547725,1195983
1722375,1547790,1196095
1722701,1548076,1195404
1722735,1548331,1196116
1722810,1548360,1195797
1722810,1548563,1195458
1722428,1548781,1194423
1722578,1548530,1194519
1722831,1548553,1194161
1723226,1548734,1194180
1723059,1548380,1193277
1723147,1548615,1193522
1723066,1549434,1192198
1723370,1549263,1193198
1723312,1549460,1192435
1723363,1549152,1191832
1723214,1549164,1192595
1723156,1548295,1192327
1723240,1548017,1193295
1723027,1547415,1191869
1723150,1547142,1192012
1722729,1546559,1192362
1722483,1545928,1192316
1722139,1545380,1191408
1721991,1545559,1192433
1721676,1544966,1192719
1721015,1545278,1192768
1721015,1544621,1192091
1720792,1544745,1193020
1720651,1544876,1192152
1720371,1544985,1193018
1720418,1544781,1193051
1720329,1544881,1192820
1720119,1545180,1191796
1719975,1545609,1192538
1719856,1545679,1192210
1719891,1545741,1191451
1719613,1546057,1191731
1719637,1545768,1191561
1719594,1545626,1191620
1719566,1546013,1191718
1719735,1546380,1192049
1720027,1546398,1192344
1719725,1546431,1192503
1719760,1546160,1192590
1719599,1546332,1192965
1719392,1546187,1191962
1719680,1546520,1192247
1719143,1546601,1192596
1719143,1546638,1192464
1718812,1546473,1192680
1718620,1546665,1192710
1718759,1546866,1192193
1718899,1546861,1192564
1718570,1546146,1192503
1718451,1546414,1192675
1718331,1546679,1192039
1718298,1546864,1193061
1718086,1546857,1192929
1718005,1547080,1191994
1717976,1547179,1192758
1718028,1546825,1192635
1718339,1547222,1193159
1718267,1547176,1192493
1718524,1547696,1193532
1718657,1547432,1193528
1718428,1547351,1193164
1718518,1547358,1193569
1718492,1548105,1194168
1718578,1548003,1194185
1718327,1548409,1193987
1718337,1548197,1193630
1718337,1548467,1194697
1718378,1548488,1194592
1718663,1548869,1194309
1718810,1548622,1193559
1718559,1548501,1193938
1718576,1548712,1193706
1718700,1548896,1193868
1718665,1549032,1194458
1718986,1549090,1194703
1718715,1549552,1194924
1718963,1549263,1194275
1718832,1549078,1195113
1719081,1549244,1194281
1719071,1549468,1194352
1719476,1549079,1194985
1719336,1549108,1195405
1719440,1549093,1194816
1719541,1549156,1195010
1719770,1549486,1195519
1719221,1549540,1195275
1719474,1549807,1195682
1719236,1550173,1194729
1719236,1550012,1195079
1719569,1550235,1194991
1719495,1550177,1195077
1719542,1550217,1195881
1719548,1550020,1196013
1719564,1549978,1195719
1719910,1550545,1196070
1720007,1550839,1196356
1720132,1550885,1196538
1720126,1551296,1196406
1720060,1550841,1195897
1720118,1551011,1196084
1720059,1551607,1195838
1720275,1551599,1196127
1720466,1551771,1196606
1720707,1552010,1195898
1720822,1552001,1196454
1720822,1551788,1195910
1720755,1551665,1196170
1720658,1551216,1196257
1720495,1550763,1195705
1720240,1550338,1193989
1720240,1549139,1193449
1719595,1548479,1193824
1719479,1548099,1193807
1719193,1547735,1192776
1719053,1547203,1192824
1718708,1546567,1192624
1718323,1546641,1193117
1717749,1546394,1193117
1717393,1546647,1192811
1717600,1546582,1193041
1717538,1546476,1192801
1717476,1546583,1193183
1717199,1546399,1192590
1717023,1545947,1192645
1716998,1546553,1192537
1716946,1546722,1192981
1717030,1546717,1192778
1717021,1546776,1193448
1716924,1546517,1192796
1716911,1546591,1192523
1716729,1546952,1192182
1716821,1546934,1192122
1716719,1547208,1192400
1716359,1547171,1192643
1716359,1547097,1192386
1716470,1546985,1192539
1716196,1546942,1192556
1716198,1546916,1192079
1716065,1547030,1191847
1716128,1547101,1191706
1715616,1547290,1191211
1715490,1547048,1192154
1715689,1547180,1191869
1715626,1547047,1192214
1715500,1546686,1192557
1715494,1546805,1191069
1715202,1546469,1191960
1715250,1546589,1192095
1715123,1546861,1192577
1715519,1546958,1191677
1715494,1546918,1192222
1715450,1547103,1192136
1715559,1546843,1192539
1715449,1547305,1191556
1715540,1547461,1192477
1715526,1547527,1192782
1715102,1547663,1191364
1715102,1547368,1192149
1715229,1547164,1192220
1716150,1547354,1192173
1715737,1547590,1192980
1715433,1547266,1192995
1715404,1547254,1192979
1716753,1547638,1192395
1715694,1547902,1192557
1715462,1548188,1192936
1715555,1548193,1192517
1715674,1548198,1193620
1715347,1547973,1193719
1716706,1547797,1194008
1716086,1548116,1193543
1715821,1548341,1194102
1715802,1547911,1194061
1715794,1547739,1193259
1715748,1547433,1193056
1716727,1547220,1193080
1715881,1547131,1194402
1715560,1547377,1194808
1715444,1546979,1193661
1715198,1546263,1194287
1715410,1546591,1194200
1715444,1546415,1194389
1715617,1546160,1195667
1715266,1545987,1194863
1714947,1545655,1194799
1716108,1545845,1194309
1715520,1545881,1194654
1715302,1546477,1195318
1714940,1546193,1196829
1715016,1545747,1195572
1714734,1545795,1196293
1716244,1546292,1196071
1715708,1546686,1195412
1715786,1547157,1196510
1715408,1546896,1196922
1715592,1546679,1196792
1715589,1546958,1196720
1717046,1546939,1197039
1716388,1547320,1198450
1715879,1548162,1198334
1715678,1547958,1198242
1715678,1548044,1197002
1715646,1548086,1198179
1715866,1548434,1198066
1716796,1548832,1197951
1716277,1549070,1199381
1716021,1548740,1197928
1716284,1548768,1199095
1717152,1548700,1198813
1716368,1547858,1198962
1715900,1548294,1198430
1715763,1546992,1199667
1715126,1546471,1199165
1714733,1546118,1198731
1715740,1545436,1197909
1714782,1545129,1198445
1714271,1545301,1197881
1713973,1544577,1197862
1713914,1544140,1196747
1713407,1544149,1197299
1714664,1543826,1196904
1713788,1544099,1196976
1713070,1544070,1196138
1713070,1543657,1195627
1712904,1543400,1195578
1712810,1543217,1195536
1712633,1543323,1195740
1713938,1543133,1195937
1712917,1542957,1195937
1712637,1543068,1196299
1712258,1543307,1196113
1712172,1543266,1196487
1713581,1543220,1196031
1712731,1543473,1197315
1712453,1543663,1196316
1712133,1543598,1196823
1711922,1543103,1196965
1711988,1543587,1197207
1713421,1543389,1197147
1712594,1543695,1197060
1712304,1543277,1196649
1711785,1543465,1196389
1711639,1544004,1195416
1711158,1544080,1197173
1711032,1544020,1196486
1711356,1544456,1196710
1711488,1544456,1194968
1711155,1544760,1196242
1711309,1544892,1195423
1711227,1545165,1196378
1711230,1545107,1196318
1711279,1545749,1195890
1711377,1545470,1196467
1711202,1545485,1195753
1711368,1545363,1195612
1711346,1545891,1196364
1711409,1545755,1196618
1711781,1546486,1196140
1711676,1546506,1195221
1711683,1546785,1194911
1711483,1546981,1196007
1711296,1547263,1196683
1711565,1547749,1196720
1711451,1548091,1196150
1711451,1547837,1195396
1711440,1548002,1194760
1711594,1547831,1196219
1711536,1548204,1196539
1711907,1548153,1196367
1711973,1548082,1195108
1711917,1548765,1196040
1712048,1548731,1196941
1711935,1548867,1196642
1712249,1548980,1196334
1712052,1549217,1195992
1712154,1548967,1196352
1711869,1549471,1196944
1712194,1549265,1196502
1712394,1549720,1196511
1712639,1549935,1196507
1712575,1550232,1196253
1712853,1550239,1197330
1712734,1550552,1196953
1712700,1550709,1197306
1712995,1551040,1197065
1712626,1551173,1198035
1712626,1551387,1197305
1712395,1550706,1197691
1712852,1551648,1198326
1712763,1552029,1197850
1712959,1552266,1197404
1713116,1551924,1197748
1713255,1552672,1197861
1713330,1553180,1197670
1713260,1552663,1197095
1713302,1553128,1197282
1713413,1553460,1196630
1713492,1553521,1198435
1713620,1553494,1197893
1713481,1553698,1198616
1713954,1553785,1197538
1714306,1554097,1196978
1714258,1553858,1197544
1713924,1553681,1198140
1713998,1553211,1197983
1713822,1552983,1198382
1714066,1552460,1197852
1713514,1551887,1198618
1713514,1551020,1198091
1713204,1550644,1198096
1712930,1550203,1198063
1712861,1550193,1197151
1712385,1549713,1195357
1712298,1549426,1195161
1711754,1549360,1194829
1711522,1549597,1194170
1711638,1549339,1193321
1711606,1549284,1192807
1711483,1549458,1192613
1711412,1549289,1193002
1710957,1549400,1192945
1711083,1549688,1192916
1711255,1550025,1193965
1711438,1550120,1193205
1711237,1550046,1193329
1711276,1549919,1192901
1711333,1550003,1193158
1711341,1550018,1193039
1711074,1550523,1192726
1710924,1550699,1192726
1710842,1550509,1192745
1710842,1550390,1192364
1710876,1550686,1192973
1711022,1550542,1193287
1710946,1550579,1193103
1710754,1550053,1192817
1710737,1550171,1192522
1710437,1549900,1191852
1710538,1550198,1191424
1710497,1550276,1192389
1710427,1550357,1193457
1710341,1550005,1192305
1709974,1549995,1192356
1710085,1550230,1191708
1710250,1550456,1192733
1710690,1550778,1192849
1710538,1550552,1192767
1710312,1550454,1191998
1710594,1550425,1193129
1710341,1550783,1192505
1710744,1550865,1193219
1710623,1551237,1193184
1710243,1551055,1193184
1710243,1551105,1193226
1710325,1551252,1192613
1710742,1551592,1193880
1710372,1551661,1193330
1710475,1551347,1193961
1710346,1551642,1193121
1710874,1551878,1193638
1710647,1552258,1193822
1710784,1552495,1195150
1710813,1552322,1194558
1710853,1552551,1194355
1710579,1552695,1194158
1710836,1553000,1194297
1710831,1553040,1195042
1711367,1553182,1196955
1711309,1552834,1194984
1711218,1552830,1195031
1711475,1552873,1194821
1711545,1553196,1195539
1711737,1553201,1196894
1711608,1553732,1196299
1711022,1553825,1196432
1711022,1553689,1195672
1711334,1553828,1195042
1711479,1554298,1195535
1711367,1554070,1196001
1711335,1553840,1195730
1711550,1553569,1196208
1711512,1553542,1196322
1711716,1553809,1196064
1711680,1553987,1196601
1711863,1554159,1197190
1712062,1553723,1196767
1711483,1553144,1196721
1711337,1553161,1196434
1712176,1553371,1196406
1712490,1553299,1196562
1712462,1553111,1197314
1712366,1552825,1197216
1712325,1552437,1197232
1711767,1552154,1196159
1712284,1551642,1196247
1711704,1551538,1197293
1711379,1550800,1196185
1711379,1550329,1195260
1711293,1549676,1194352
1710917,1549580,1193690
1710425,1549336,1193262
1710223,1548855,1194444
1710084,1548573,1193159
1709687,1548600,1192520
1710496,1549024,1191749
1709666,1549141,1191522
1709477,1549441,1191631
1709125,1548855,1192515
1709132,1548731,1190986
1708926,1548878,1190795
1710351,1548992,1190785
1709351,1549024,1190901
Device connected: 51:d1:fb:c1:55:16,,1189661
1708887,1549927,1189830
1708787,1550273,1189417
1708298,1550321,1189765
1709266,1549433,1189841
1707709,1549912,1188750
1707555,1550360,1188750
1707103,1550380,1189962
1706759,1551001,1188663
1706711,1551557,1189700
1706344,1552707,1188420
1706311,1552956,1189541
1706486,1552631,1189145
1706539,1552465,1189105
1707812,1552111,1188228
1706873,1551677,1188294
1707068,1550691,1188246
1707058,1550238,1189154
1707102,1549947,1188255
1707401,1549204,1187703
1707968,1548050,1187369
1707895,1546200,1188081
1708223,1544595,1188363
1708564,1544744,1188158
1708592,1544154,1188136
1708672,1544263,1187320
1708765,1543836,1187320
1708427,1543549,1188341
1708769,1543456,1188339
1709209,1543983,1188818
1709180,1544015,1187904
1708737,1544246,1188562
1709241,1544807,1187697
MTU changed to 255 for device 51:d1:fb:c1:55:16,,1187348
1709256,1544980,1187653
1709441,1545437,1188355
1708601,1543851,1188672
1708691,1544130,1188372
1708667,1543700,1188534
1708418,1543390,1188498
1708092,1543526,1188106
1707312,1544022,1188612
1706919,1543719,1188203
1706867,1543634,1189028
1706748,1543535,1188917
1706707,1543665,1189352
1706709,1543512,1189709
1706010,1543553,1189895
1706082,1544110,1190174
1705985,1544609,1189992
1705497,1544195,1189831
1705778,1544441,1190267
1706029,1544472,1190372
1705894,1545103,1190977
1705463,1544988,1190891
1705182,1545283,1191327
1705313,1545321,1191654
1705285,1545238,1192686
1705193,1545164,1192482
1705170,1545143,1192346
1705010,1544838,1192933
1704768,1545681,1192339
1704841,1545728,1192090
1705022,1546464,1192660
1705048,1546610,1193175
1704792,1547161,1193148
1705063,1547197,1193065
1704694,1547753,1193237
1705090,1548101,1194236
1704841,1548758,1194025
1704440,1548962,1194828
1704440,1549786,1195358
1704441,1550337,1195105
1704688,1551052,1194588
1704542,1551636,1194844
1704289,1551996,1194079
1704247,1551738,1194831
1704077,1552625,1195281
1703908,1553378,1193984
1703971,1553472,1194860
1703796,1553837,1194695
1703952,1554038,1195703
1703739,1554391,1195050
1703751,1554545,1194137
1703835,1554649,1193649
1704131,1554773,1192492
1704172,1555339,1192554
1704075,1555190,1191945
1703888,1555377,1191281
1703884,1555833,1190242
1703700,1555839,1189781
1703507,1556477,1189942
1703310,1556597,1189553
1703310,1556575,1189220
1703429,1557346,1189485
1703439,1557001,1189463
1703659,1557317,1189356
1703521,1556611,1189228
1703663,1556618,1189668
1703628,1556652,1189354
1703616,1556703,1188359
1703603,1557015,1188592
1703754,1557373,1189484
1703926,1557544,1190095
1703800,1557572,1189977
1703379,1557714,1190822
1703649,1558015,1190315
1703733,1558085,1190798
1703894,1558158,1190872
1703717,1558461,1190802
1703721,1557352,1190340
1702579,1555684,1189811
1702698,1555684,1189839
1702517,1555206,1190832
1702504,1555352,1190226
1701814,1555555,1189646
1701392,1555536,1190301
1701694,1555820,1189342
1700932,1556114,1189888
1700869,1556329,1189961
1699420,1556868,1189953
1698825,1558079,1190470
1698474,1558803,1190161
1698059,1559285,1189274
1698316,1559646,1190035
1698247,1559916,1190030
1697890,1559860,1190527
1697525,1560499,1189529
1697135,1560771,1190488
1697270,1560889,1190589
1696987,1561067,1192588
1697007,1561305,1191182
1696733,1561491,1191241
1696694,1561453,1190804
1696000,1561571,1191791
1696064,1561988,1191984
1695415,1562244,1192056
1695924,1562619,1192310
1695473,1562580,1191286
1695488,1562351,1192089
1695014,1562317,1193032
1694627,1562573,1193811
1693327,1562689,1193366
1693773,1562952,1193216
1693773,1563132,1192277
1693631,1563263,1192728
1693736,1563444,1192456
1693663,1563761,1193755
1693692,1563768,1193833
1692635,1563914,1193487
1693439,1564727,1193631
1693396,1564623,1193902
1693412,1564388,1193303
1692395,1564910,1195351
1693054,1564665,1194147
1692947,1564717,1194457
1692918,1565268,1194771
1692915,1565040,1195519
1692614,1565323,1195291
1692489,1565451,1194776
1692689,1565929,1195610
1692439,1565712,1194085
1692251,1565983,1194788
1691976,1565916,1194955
1691768,1566362,1196470
1690948,1566603,1196240
1690948,1566552,1195857
1690763,1566470,1194923
1690508,1567056,1195511
1690094,1567256,1195817
1689932,1567177,1196597
1689520,1567251,1195604
1687996,1567875,1195323
1687797,1568120,1195543
1687672,1568066,1195019
1687259,1568132,1194192
1686823,1567733,1193489
1686717,1567259,1193160
1686312,1566683,1192563
1686226,1566591,1191742
1685981,1566240,1189821
1685891,1566226,1190609
1685206,1565882,1189566
1684819,1565718,1189736
1684362,1565569,1188975
1684721,1565727,1189295
1684192,1565494,1189066
1683574,1565729,1189704
1683574,1565282,1189027
1682889,1565573,1189469
1682897,1565521,1188938
1682825,1565598,1189810
1682730,1565324,1189108
1682582,1565058,1190151
1681746,1564815,1187974
1681883,1565315,1189114
1681757,1565556,1189621
1681976,1565161,1189381
1681317,1565169,1188835
1681553,1564839,1189264
1681081,1565774,1188158
1680016,1567064,1188104
1679393,1568201,1188151
1677929,1568927,1187588
1678207,1569319,1188098
1677978,1569750,1186990
1677863,1570633,1187272
1678414,1571205,1186659
1676947,1571029,1187087
1676611,1571848,1185957
1676240,1572574,1186560
1676098,1573592,1185425
1676139,1573823,1185804
1676141,1574113,1186110
1676089,1574072,1186743
1675986,1573739,1185998
1675922,1573761,1185797
1675752,1573742,1185737
1675366,1574275,1185617
1675993,1574649,1185771
1675743,1574598,1185957
1675807,1575171,1185512
1675820,1574824,1186068
1675656,1574634,1186015
1675782,1574365,1185318
1676102,1575067,1185952
1675712,1573858,1185271
1675234,1571353,1185150
1675286,1570634,1184573
1675186,1569829,1185478
1674445,1569099,1185331
1674196,1568058,1186329
1673248,1568391,1185785
1673329,1567929,1186417
1672913,1567258,1185351
1672503,1566816,1186254
1671690,1565761,1186063
1671717,1565561,1186889
1671390,1564670,1186312
1671284,1563949,1186205
1671486,1563941,1185716
1671436,1563977,1186507
1671181,1564419,1186373
1670915,1564788,1185940
1670488,1564977,1186022
1669977,1566640,1185934
1669182,1568941,1185658
1668811,1569900,1186738
1668721,1570058,1187007
1668725,1570387,1186389
1668191,1570877,1186624
1668901,1570902,1186604
1668532,1571172,1186423
1668511,1570896,1186202
1668614,1571185,1187153
1668755,1571321,1186835
1668606,1571372,1187618
1668715,1571648,1186991
1668620,1572058,1187898
1668295,1572605,1187654
1668119,1573770,1187720
1667803,1574208,1188247
1667980,1574554,1188201
1667420,1575233,1187584
1667334,1575551,1187759
1666784,1575743,1188224
1666613,1576382,1188522
1666402,1576535,1188962
1666072,1576257,1188127
1666195,1576468,1187457
1666609,1576711,1186444
1666703,1575057,1185851
1665689,1573182,1185249
1665922,1573104,1184227
1665792,1572079,1182272
1665617,1571823,1182142
1665663,1571298,1181191
1665203,1571105,1180523
1664683,1570572,1179646
1664918,1570763,1178982
1664706,1570517,1179183
1664443,1570412,1178850
1663066,1570426,1178332
1664287,1570017,1177714
1664187,1569903,1177478
1664273,1569972,1177649
1664288,1569743,1177394
1664687,1569736,1177433
1664562,1569511,1177577
1664576,1569279,1176842
1664311,1569234,1177357
1664454,1570402,1176715
1664599,1569654,1177360
1664216,1569926,1177063
1663920,1569657,1176305
1663920,1569307,1177194
1664286,1569045,1177142
1664004,1570347,1176485
1664124,1568944,1176670
1663871,1568370,1176364
1663718,1567942,1176021
1663221,1567877,1175601
1662988,1569329,1175737
1662852,1568296,1175284
1662819,1567846,1175648
1661374,1567469,1175197
1662292,1567081,1175894
1662289,1567255,1176428
1662307,1568565,1175500
1662686,1567254,1175737
1662648,1567302,1175423
1661179,1567096,1176503
1662543,1567049,1176827
1662435,1567286,1177138
1662288,1568498,1177560
1662204,1567493,1177528
1661903,1567254,1177693
1661903,1566628,1178443
1660739,1566781,1178417
1661899,1567046,1178663
1661782,1569037,1178977
1661783,1567424,1178941
1661809,1567165,1179275
1661684,1567414,1179674
1661515,1567486,1180275
1661603,1567218,1179846
1661316,1567303,1179457
1661219,1568321,1178964
1660859,1568722,1178734
1661009,1569899,1178748
1660037,1571255,1180119
1659559,1573715,1179935
1659153,1573065,1179551
1657999,1573539,1179487
1656571,1574428,1179630
1656550,1574736,1180302
1655474,1575163,1180149
1652831,1575979,1179818
1650942,1574810,1180319
1649816,1574286,1180311
1649148,1573529,1180769
1646234,1573033,1181447
1644633,1572754,1181221
1645600,1572697,1181346
1645565,1572297,1181831
1645339,1572680,1182614
1644982,1572402,1181631
1644936,1571908,1183393
1644888,1572106,1182733
1644590,1571987,1182449
1644541,1571759,1182537
1643832,1570957,1180955
1643530,1571125,1180258
1643444,1569997,1181521
1643017,1569572,1180575
1643049,1569704,1180244
1642974,1569342,1180051
1642749,1569157,1180691
1642796,1568951,1180975
1642354,1569027,1180734
1642432,1569038,1181787
1642357,1568701,1181707
1642591,1568991,1180759
1642309,1567944,1181395
1642419,1568491,1182243
1642466,1568044,1181333
1641788,1567713,1181302
1641943,1567419,1180589
1641907,1567533,1179585
1641919,1567655,1179163
1641950,1567521,1178634
1641550,1567414,1176998
1641655,1567465,1176445
1641856,1566666,1175339
1642304,1565712,1174253
1642595,1564910,1173585
1643097,1564743,1173594
1642587,1564229,1172275
1643144,1564209,1172826
1643026,1564566,1171892
1643070,1564360,1172877
1643038,1564194,1173402
1643130,1564317,1171566
1643121,1564354,1171943
1643544,1564113,1172206
1643563,1564083,1172701
1643544,1563773,1171415
1643483,1560689,1172364
1643007,1557049,1171010
1642602,1556296,1172359
1642535,1555471,1171924
1642061,1555341,1172258
1641831,1554891,1172270
1641506,1554698,1172672
1641317,1554670,1172401
1641111,1554219,1172457
1641045,1554101,1171535
1640701,1553671,1172498
1640360,1553565,1172016
1639798,1553950,1173019
1639819,1554159,1172294
1639884,1552675,1171691
1639783,1550827,1171491
1640253,1550822,1170758
1639880,1549535,1171615
1639404,1548027,1170363
1639159,1547647,1171324
1639572,1546742,1170970
1639394,1546061,1172029
1638734,1545655,1171210
1637891,1546921,1172068
1637731,1549104,1171928
1637327,1550038,1173459
1637170,1550421,1173220
1637428,1550977,1173599
1636958,1551266,1173379
1637040,1551716,1173293
1636991,1552101,1174133
1636634,1552698,1174809
1636616,1552981,1174259
1636630,1552963,1174862
1636745,1552927,1175026
1637033,1552352,1175697
1637091,1551987,1175972
1637175,1551074,1175975
1637073,1550784,1177280
1637292,1550210,1176242
1637551,1549705,1176940
1637567,1549664,1177138
1637324,1549552,1177982
1637747,1549374,1177332
1637537,1549449,1178582
1637816,1549135,1178205
1637826,1548266,1178323
1637761,1546848,1178934
1638231,1547043,1179667
1638309,1546856,1179625
1638150,1546983,1180440
1637992,1547245,1180734
1638150,1547275,1180965
1638155,1547106,1181083
1638417,1547256,1181289
1638437,1547356,1181634
1638569,1546639,1182077
1638646,1545982,1181583
1639101,1545577,1182538
1639089,1545811,1183572
1638961,1546995,1183991
1639671,1547564,1184669
1639503,1547173,1184855
1639209,1547115,1185679
1639431,1546920,1185150
1639171,1547173,1185843
1639110,1547094,1185017
1639467,1547252,1184957
1639068,1547205,1186476
1639459,1547803,1186556
1639281,1547791,1186441
1639349,1547707,1187582
1639360,1547630,1187745
1640162,1547621,1188171
1639802,1547405,1188150
1640190,1547412,1188480
1639846,1547281,1188286
1639797,1546858,1187547
1639492,1546564,1187570
1638485,1546650,1188309
1637475,1546478,1186301
1637657,1546681,1185892
1636929,1546787,1185267
1636857,1546972,1184229
1636450,1547413,1184138
1635807,1547895,1183120
1635775,1547889,1181949
1635781,1548665,1181130
1635335,1549043,1181507
1635229,1548892,1180774
1634892,1549695,1180515
1634938,1550991,1181171
1634290,1551179,1181030
1633815,1551074,1181393
1634511,1550989,1181475
1634425,1551421,1181706
1634123,1551242,1182120
1634032,1550834,1182586
1633572,1551109,1182562
1633533,1550888,1183374
1633321,1551002,1183950
1633477,1550743,1184432
1633276,1551357,1185021
1632887,1551907,1185075
1632825,1551757,1184732
1632526,1551974,1184998
1632313,1552324,1185045
1632271,1552963,1184705
1632269,1553183,1184953
1631967,1553265,1184532
1632248,1553464,1184181
1631554,1553301,1183371
1631488,1554015,1183595
1631640,1555002,1183957
1631602,1555162,1183766
1631698,1555902,1183461
1631575,1557682,1183110
1631365,1558391,1183142
1631556,1558192,1183646
1631953,1558142,1183225
1631690,1558355,1183383
1632040,1557942,1182950
1631859,1557798,1183192
1632155,1557962,1183557
1632026,1558430,1183842
1632087,1558062,1184217
1632054,1557733,1184286
1632335,1557740,1184096
1632504,1557885,1184636
1632916,1557725,1183785
1632917,1557613,1183364
1633171,1557364,1184380
1633224,1557533,1185779
1633202,1557572,1185690
1633027,1557821,1185645
1632963,1558079,1186470
1632779,1558396,1187342
1633109,1558347,1187359
1633411,1558609,1186675
1633811,1558354,1186648
1633889,1558532,1187461
1633377,1558448,1187053
1633637,1558630,1186923
1633273,1559054,1188067
1633416,1559324,1187409
1633324,1559395,1187343
1633736,1560195,1187599
1634223,1559435,1188142
1634082,1558648,1188618
1633695,1556995,1187737
1633042,1555692,1188569
1632957,1556020,1187757
1632921,1555042,1188023
1632775,1554954,1188653
1632540,1554658,1188842
1632262,1554970,1187847
1631987,1554905,1188131
1631954,1554997,1189011
1631776,1554912,1188707
1631876,1554963,1189827
1631620,1554914,1190003
1631512,1554669,1190314
1631304,1554523,1190206
1631335,1554248,1190282
1631311,1554964,1190604
1631349,1555858,1191107
1631206,1555733,1191323
1630842,1555422,1190885
1630969,1555802,1190639
1630714,1555346,1189263
1630584,1555419,1188877
1630800,1555401,1187886
1630807,1555311,1186546
1630133,1555702,1184770
1630213,1555202,1183758
1630415,1554958,1182695
1630249,1554860,1182445
1630119,1555237,1182064
1630396,1554951,1182922
1630115,1554977,1183661
1629642,1556279,1183689
1630205,1557120,1182848
1630220,1556943,1183305
1629683,1557426,1183305
1630105,1557733,1183418
1629845,1557918,1183305
1629984,1557847,1182438
1629924,1557901,1183697
1629553,1558117,1183006
1630056,1557667,1183175
1630078,1557725,1182685
1630014,1558002,1182872
1630039,1558292,1182553
1629864,1558542,1182522
1630133,1558920,1182179
1629842,1558939,1182433
1629784,1559745,1181875
1629622,1560556,1181633
1629683,1560274,1181963
1629957,1560885,1182340
1629856,1560616,1181998
1629862,1561007,1181861
1629327,1561103,1181681
1630183,1561134,1182002
1630094,1561402,1182016
1630086,1561808,1182536
1629913,1561764,1182580
1630003,1561556,1182580
1630596,1561596,1183043
1630771,1562249,1182984
1630587,1563152,1184086
1630783,1564129,1183681
1630870,1564735,1183950
1631248,1564355,1183753
1630757,1564448,1183917
1631044,1565151,1183918
1630812,1565383,1184924
1630703,1565848,1184777
1630001,1565856,1186353
1631068,1566093,1186492
1630814,1566588,1186138
1630679,1567194,1185170
1630535,1566934,1185628
1630473,1567081,1185036
1630271,1567467,1185974
1630968,1567535,1185341
1631036,1567885,1186181
1630793,1567935,1185875
1630586,1567520,1185624
1630558,1566859,1185747
1630129,1566528,1185889
1630784,1566395,1186635
1630112,1566263,1186068
1629627,1566295,1186125
1629627,1565593,1186927
1629610,1565182,1187823
1629450,1564876,1188222
1629641,1565175,1187739
1629357,1565582,1187255
1629124,1566320,1187360
1628604,1566318,1187192
1628413,1566041,1187198
1628564,1565672,1187780
1628817,1566144,1189482
1628698,1565917,1189428
1628553,1565987,1189618
1628465,1565571,1188782
1628664,1566130,1189842
1629401,1565908,1189680
1629174,1566118,1189537
1629084,1566156,1188273
1629129,1565940,1187851
1629034,1566414,1186863
1629253,1566048,1185107
1629511,1565925,1183444
1628866,1565869,1182906
1628866,1565495,1182395
1629022,1565838,1181727
1629054,1565976,1181019
1629069,1565668,1179646
1629158,1565284,1180358
1628922,1564240,1180072
1628895,1563887,1179798
1629212,1563575,1179589
1629226,1563071,1179645
1629442,1562694,1179576
1629443,1562068,1180236
1629304,1561878,1179972
1630104,1560840,1180256
1630274,1559164,1179690
1630045,1558848,1180070
1630107,1558407,1179955
1630391,1558473,1180141
1630851,1558183,1180908
1630725,1557150,1180764
1630552,1556661,1180627
1630403,1556416,1180651
1630654,1556213,1181377
1631136,1554814,1180082
1631493,1553082,1181050
1631442,1552263,1180444
1631151,1551249,1179750
1631337,1550856,1180078
1631317,1550750,1179518
1631374,1550592,1180133
1631353,1549602,1179594
1630987,1549662,1179167
1631245,1548832,1178774
1630922,1549077,1179755
1630885,1548681,1180068
1630984,1548799,1180554
1631140,1548190,1179540
1630888,1545666,1179443
1630022,1543416,1179466
1629692,1543048,1180112
1629420,1541806,1180028
1629075,1539767,1180606
1628278,1539134,1180340
1627970,1538904,1180471
1627958,1537780,1180631
1627073,1537453,1181105
1626554,1537471,1181084
1626096,1536268,1182682
1626022,1535696,1183145
1625288,1535877,1181951
1624992,1535194,1183347
1624957,1535217,1183320
1624749,1534591,1184210
1624635,1533942,1183414
1624371,1533173,1184397
1623732,1533464,1184730
1623637,1533586,1184697
1623626,1533646,1184862
1623519,1533101,1184578
1623095,1532640,1185197
1622952,1532016,1184984
1622722,1531593,1185318
1622999,1531197,1185304
1622746,1531275,1185590
1622724,1531982,1185523
1622434,1532993,1186435
1622107,1532735,1187204
1621961,1533341,1187604
1622120,1533484,1187419
1621644,1534403,1188127
1621527,1535212,1187552
1621568,1535723,1187782
1621454,1536175,1187635
1621321,1536885,1189065
1621236,1537614,1189337
1621265,1538112,1188955
1620649,1538449,1189200
1620690,1539503,1189415
1620758,1540575,1189842
1620570,1541951,1189961
1620565,1542617,1190475
1620545,1543631,1191176
1620501,1544128,1191938
1620363,1544785,1190613
1620344,1545909,1191813
1620448,1547127,1192337
1620313,1547707,1193163
1620214,1547785,1191838
1620120,1548238,1192721
1619742,1548396,1192376
1619454,1548252,1191521
1620028,1548220,1191220
1619888,1548387,1190757
1619713,1548033,1188267
1619483,1547318,1187489
1619254,1546666,1185923
1619018,1546539,1185229
1618829,1545927,1183677
1618693,1545195,1183874
1618161,1544610,1182581
1617719,1543721,1182759
1617481,1543567,1182393
1617613,1543516,1181316
1617126,1543620,1180318
1616471,1543788,1181803
1616471,1543647,1181427
1615958,1543929,1180768
1615853,1544279,1181310
1615773,1544717,1181323
1616881,1544587,1182491
1615792,1544609,1181944
1614847,1544880,1182542
1614817,1545087,1181520
1616118,1545089,1181801
1615165,1545574,1182292
1614683,1545473,1182168
1614313,1545117,1181421
1614116,1544982,1181522
1614238,1545251,1182258
1615905,1545546,1182019
1614845,1545720,1182006
1614205,1545775,1182442
1614044,1545391,1181843
1614023,1545405,1181931
1614141,1545514,1181604
1615363,1545420,1181390
1613923,1545375,1181635
1613923,1545212,1181735
1613399,1545082,1182390
1613046,1544907,1181895
1613180,1544950,1181921
1613353,1544934,1181596
1614288,1544727,1182519
1612578,1545077,1182840
1612361,1545706,1183433
1612385,1546256,1182726
1613796,1546506,1182337
1612749,1546860,1182235
1612504,1546793,1183403
1612061,1546461,1182899
1612362,1546454,1184259
1612535,1546242,1184664
1614040,1546342,1184556
1612699,1546959,1184950
1613869,1547826,1185528
1612470,1547393,1184796
1612759,1547488,1185455
1612768,1547625,1185093
1614335,1547564,1186334
1613219,1547811,1185794
1612515,1548231,1186134
1612109,1548274,1186772
1612642,1547728,1185895
1613814,1547698,1186814
1612780,1547334,1185693
1612465,1547591,1186033
1612204,1548046,1185615
1613746,1549228,1186616
1612082,1550964,1185619
1611524,1552372,1185802
1611206,1551941,1185598
1611471,1551460,1186364
1611047,1551123,1186646
1610599,1550554,1187161
1610212,1548690,1185931
1609324,1548013,1186837
1608894,1547303,1186560
1608391,1547335,1186447
1608155,1546584,1187562
1607527,1545318,1186795
1607782,1542973,1186972
1607829,1542191,1185623
1608186,1540262,1185623
1607178,1539209,1186638
1607601,1538927,1186129
1607300,1539250,1186349
1607410,1539238,1185704
1607077,1538711,1185594
1606797,1538684,1185458
1606755,1537300,1184869
1606831,1535207,1185743
1606697,1534954,1185766
1606543,1534556,1185848
1606425,1534183,1185260
1606385,1534820,1185283
1606353,1534624,1185282
1606124,1535098,1182895
1606024,1535860,1182775
1605685,1536047,1180814
1606040,1536837,1181296
1605763,1537836,1179266
1605823,1539429,1177461
1605647,1541034,1176187
1605922,1542702,1175411
1605893,1543645,1174825
1605914,1543205,1173412
1606076,1543718,1173541
1606279,1543766,1171716
1605942,1544284,1172035
1605866,1544971,1172149
1606642,1545545,1172700
1606504,1545205,1171964
1606419,1546330,1172353
1606286,1547254,1172402
1606146,1549235,1172523
1605877,1548308,1172744
1605225,1546383,1173890
1604658,1546074,1174178
1604447,1545913,1174050
1604515,1545718,1174232
1604099,1545760,1175277
1604051,1545858,1175477
1603620,1545428,1175922
1603405,1545551,1175362
1603632,1545529,1174906
1603311,1546140,1174744
1603465,1546184,1174674
1603713,1546037,1175012
1604013,1546416,1174903
1603196,1546724,1174999
1603401,1547615,1175137
1603264,1548279,1175664
1603360,1549134,1175759
1603140,1549998,1175928
1602809,1550166,1175318
1602772,1551430,1175604
1602422,1553901,1175780
1602380,1556483,1176152
1600916,1558994,1176969
1601416,1562134,1177222
1601428,1563497,1177137
1601578,1564258,1177384
1599904,1564989,1178250
1600727,1566018,1178975
1601102,1566725,1179200
1601036,1568279,1179761
1601113,1567590,1179878
1601270,1567809,1179676
1600077,1567697,1180675
1601326,1567488,1180542
1601570,1567683,1180497
1601636,1568543,1180347
1601650,1568220,1180591
1601978,1568447,1181488
1601109,1568658,1182341
1602058,1569055,1182253
1602006,1569084,1182186
1602054,1569896,1182558
1602509,1569562,1181655
1602871,1569392,1182394
1601499,1569603,1183109
1601969,1569671,1183299
1601969,1569403,1182997
1602568,1570307,1183800
1602520,1570598,1183790
1602977,1570812,1183257
1602872,1570405,1184142
1601821,1570416,1183702
1603117,1570167,1184140
1603160,1570713,1184245
1603633,1570810,1184129
1603898,1570384,1183331
1603005,1570256,1183758
1603696,1570382,1183659
1604297,1570680,1184074
1603931,1568901,1184464
1603485,1566977,1184430
1602844,1565484,1184179
1602171,1564849,1184438
1602008,1565132,1184983
1601735,1565434,1185554
1601838,1565631,1184705
1601937,1565419,1185487
1601954,1565192,1185681
1602008,1565331,1186056
1602053,1565378,1185686
1601747,1565642,1186061
1601835,1565478,1186097
1602003,1566330,1187311
1602142,1566823,1188136
1602428,1566383,1187893
1602371,1566928,1187853
1602380,1566841,1188580
1601962,1566958,1188080
1601810,1566955,1187350
1602054,1566548,1186227
1602301,1566646,1185307
1601819,1566625,1183885
1602442,1568170,1182383
1601471,1569209,1180871
1602058,1569685,1180096
1601876,1569655,1178766
1602262,1570802,1177071
1602378,1571799,1176530
1602300,1571341,1175358
1602405,1571689,1175201
1602753,1572033,1173746
1602501,1572104,1174588
1602594,1572029,1173696
1602991,1572112,1174368
1602385,1572509,1174319
1602774,1572590,1173703
1602528,1572689,1173215
1602605,1573041,1174178
1602614,1573416,1174238
1602704,1573738,1174696
1603277,1574026,1174846
1603311,1573686,1174515
1603335,1573953,1175185
1603158,1574010,1174672
1603316,1574110,1174304
1603491,1574472,1174451
1603506,1574544,1175051
1603734,1575325,1174591
1604100,1575383,1175848
1603780,1575154,1174450
1603897,1574599,1174520
1603829,1574051,1174429
1603005,1571652,1174450
1602186,1569887,1174434
1601207,1569660,1174634
1600809,1569609,1174335
1600584,1569384,1174446
1599980,1569571,1173788
1599943,1569829,1172970
1600415,1569938,1173384
1600189,1570463,1173955
1599791,1570268,1173840
1599843,1570495,1173851
1599908,1570429,1174566
1599999,1570178,1174467
1599806,1570764,1174902
1599693,1570501,1174637
1599593,1570656,1175708
1599550,1570631,1174946
1599579,1570590,1175233
1599430,1571552,1175024
1599080,1571187,1175879
1598940,1571581,1176312
1599276,1571990,1177100
1599213,1571805,1176174
1598736,1572385,1176849
1598825,1572572,1177233
1599009,1573335,1178226
1598828,1573408,1177160
1599028,1574206,1178606
1599136,1574644,1177469
1599843,1575222,1178817
1599711,1575575,1178407
1599872,1575492,1179553
1600157,1575964,1179179
1600161,1575690,1179134
1600151,1575952,1178995
1600221,1576157,1178655
1599943,1576518,1179271
1599907,1577265,1179227
1600099,1577598,1179885
1600009,1577848,1179345
1599974,1577930,1180124
1600302,1578737,1180333
1600091,1578990,1181535
1600464,1579900,1181873
1600720,1579993,1182330
1600795,1579253,1182612
1601109,1579493,1182803
1601250,1579008,1182227
1601031,1577889,1183392
1600090,1577752,1182832
1600331,1576190,1183265
1598086,1575443,1183025
1598066,1574621,1183577
1596958,1574576,1183787
1596765,1575744,1184594
1595784,1574770,1185129
1595935,1575697,1185280
1595862,1574728,1186572
1595858,1574178,1186033
1594923,1574572,1186856
1595316,1574838,1186676
1595097,1574740,1187520
1595315,1576661,1185987
1595284,1575189,1186953
1595335,1575060,1186966
1593568,1574659,1187215
1594694,1574551,1187032
1594779,1574692,1186803
1594749,1576183,1185597
1594853,1574685,1185388
1595138,1574478,1184079
1593200,1574580,1182681
1594595,1574360,1180446
1594469,1574562,1179434
1594489,1576041,1178440
1594203,1575637,1177560
1594160,1575193,1175598
1594339,1575375,1174832
1594673,1576328,1174688
1594840,1575278,1174186
1594706,1575214,1175242
1592480,1575399,1174461
1593840,1575480,1175183
1594257,1575696,1175636
1594259,1577087,1175739
1594504,1576263,1175062
1594668,1575914,1175589
1592943,1575497,1176076
1594135,1575748,1176035
1594504,1575831,1176776
1594731,1577146,1177367
1595284,1576366,1177126
1595388,1576374,1177881
1593398,1576356,1177079
1594768,1576378,1177442
1595148,1576396,1176301
1595316,1578037,1176727
1595301,1577183,1176582
1595130,1576286,1177640
1595343,1576569,1177349
1595585,1578015,1176534
1595909,1576844,1176177
1595573,1576899,1176049
1593493,1577297,1176126
1594934,1577312,1176232
1595458,1577214,1176046
1595677,1578724,1175789
1595713,1577908,1176376
1595742,1577547,1175888
1593725,1577482,1176709
1595092,1577738,1177305
1595941,1578874,1177744
1596127,1580081,1177501
1596594,1580593,1177729
1595867,1580512,1177741
1596725,1580796,1178443
1596619,1581952,1178456
1596953,1581492,1178328
1596771,1581968,1178383
1596906,1581661,1178718
1597345,1581501,1178986
1597309,1582461,1179484
1597762,1581730,1180464
1597718,1582535,1180412
1598156,1582891,1180974
1598956,1583419,1180823
1598752,1583633,1180564
1598964,1583960,1181288
1599257,1584117,1182227
1599205,1584878,1181980
1599254,1584549,1181897
1599147,1585039,1182364
1598804,1584785,1183287
1599229,1584631,1184630
1599563,1584758,1184697
1599387,1585028,1184805
1599770,1585164,1185337
1599952,1586442,1185337
1600393,1586775,1184969
1600355,1587130,1185227
1600266,1587439,1185363
1600733,1587774,1185110
1600777,1587242,1185923
1600560,1587058,1185775
1600701,1585530,1185878
1599856,1584302,1186510
1599449,1584021,1186766
1599168,1583325,1187418
1598497,1582297,1186552
1597808,1581469,1187334
1597166,1581786,1187192
1597142,1581697,1187956
1596730,1581796,1187928
1596795,1582200,1188815
1596526,1581860,1189146
1596219,1581798,1188836
1596105,1581717,1188377
1595754,1582131,1187163
1595895,1581974,1186331
1595839,1582186,1185142
1595838,1582026,1182526
1595919,1581711,1180810
1595906,1581600,1179329
1595569,1581369,1178120
1595707,1581268,1177022
1595384,1581290,1176259
1595298,1581387,1175160
1595439,1581664,1175027
1595424,1581023,1174716
1595346,1580943,1173537
1595332,1581603,1173126
1595165,1581152,1173691
1595284,1581329,1173619
1595315,1581747,1173740
1595238,1581990,1173696
1594997,1582432,1174006
1595191,1582300,1174306
1595212,1582360,1174475
1595404,1582593,1173589
1595499,1582374,1173257
1595548,1582531,1174527
1596045,1583393,1174891
1596174,1583149,1174906
1596015,1582957,1174566
1596341,1583464,1174386
1596262,1583380,1174898
1596249,1583623,1173605
1596057,1583587,1174029
1596209,1583933,1174122
1596371,1583982,1173435
1596402,1583900,1173238
1596540,1584428,1173564
1596687,1584324,1173171
1596658,1583902,1173600
1596769,1584313,1173456
1597465,1585061,1174196
1597249,1584916,1173712
1597526,1584956,1174264
1597661,1585731,1173313
1597758,1585718,1173719
1597918,1585862,1172181
1597929,1586239,1173454
1597793,1586595,1174122
1597527,1586765,1174072
1598002,1586786,1174436
1598224,1586788,1174227
1598098,1587317,1174665
1597900,1587039,1175278
1598079,1586906,1176058
1598218,1586951,1175759
1598434,1587082,1176260
1598432,1587583,1176061
1599426,1588340,1175908
1599096,1588644,1176471
1599478,1588420,1176846
1600058,1588713,1176323
1600104,1588596,1176544
1600064,1589085,1176626
1600716,1589392,1176981
1600275,1589427,1176081
1600360,1589085,1176350
1600469,1588647,1176024
1600219,1588275,1175762
1599821,1587230,1175797
1600048,1586393,1176069
1599466,1586217,1175300
1599394,1585650,1175038
1599205,1584716,1176297
1598808,1584323,1176291
1598236,1583752,1176876
1598357,1583274,1176601
1598147,1583104,1177589
1597905,1583072,1177233
1597729,1582868,1177240
1597137,1582706,1177187
1597137,1582690,1178189
1596471,1582691,1178334
1597009,1582452,1179888
1597080,1582935,1179747
1596931,1582468,1179496
1596803,1582297,1179575
1596660,1582367,1180726
1596620,1582748,1181028
1596540,1582638,1181434
1596455,1582404,1180852
1596367,1582294,1181780
1595785,1581860,1182081
1596307,1582020,1182548
1595595,1581964,1183958
1596214,1581606,1183503
1595582,1581036,1184867
1595589,1581469,1185317
1595655,1581151,1184720
1595772,1581618,1180290
1595776,1581379,1176343
1595530,1581439,1171648
1595249,1581523,1170375
1595329,1581423,1171039
1595342,1581223,1170002
1595248,1581605,1169685
1595401,1581206,1169273
1595258,1581155,1169134
1595345,1581404,1169134
1595520,1581576,1168329
1595463,1581694,1168632
1595665,1581769,1168818
1595973,1581939,1169203
1595871,1581927,1168810
1595914,1582168,1169844
1595972,1582401,1169234
1596125,1582722,1169852
1595657,1582885,1170079
1595657,1582828,1170115
1595714,1582858,1170244
1595504,1583158,1170967
1595765,1583289,1170234
1595951,1583251,1169858
1595669,1582933,1170148
1595916,1583061,1170660
1596016,1583352,1169827
1596009,1583100,1170566
1596272,1583480,1171349
1596390,1583595,1170786
1596375,1584213,1170637
1596540,1584896,1170798
1596927,1584676,1170808
1596839,1584936,1171498
1597240,1585383,1170825
1597438,1585349,1170563
1597465,1585581,1171143
1597385,1585562,1171397
1597123,1585510,1171138
1597928,1585705,1171587
1597655,1585990,1171710
1598148,1586580,1170695
1598282,1587092,1170631
1598783,1587110,1171005
1598617,1587383,1172095
1598907,1587551,1170790
1599290,1588268,1171188
1599712,1588234,1171002
1599396,1588677,1171856
1599558,1588786,1171739
1599298,1588372,1171682
1599561,1588101,1171709
1599367,1586024,1171895
1598123,1583884,1172698
1597261,1582401,1172743
1596462,1582010,1173702
1595614,1581766,1174003
1595935,1582089,1174775
1596189,1581817,1174562
1595765,1582326,1176282
1595982,1582031,1175938
1595392,1582137,1176951
1595311,1582147,1176188
1595369,1581545,1176240
1595251,1581580,1177066
1595148,1580635,1177718
1595136,1579544,1177969
1595052,1579385,1178685
1594724,1579283,1178416
1594461,1579015,1178110
1594408,1579172,1178551
1594349,1579072,1179102
1594066,1578918,1178434
1594389,1578883,1178432
1594074,1578788,1179136
1594157,1578636,1179364
1594555,1579447,1179578
1594445,1578939,1180509
1594423,1578482,1179991
1594376,1578766,1180362
1594551,1578568,1181109
1594452,1578789,1182094
1594434,1578753,1181879
1594341,1578727,1181870
1594819,1578726,1181965
1594572,1578586,1181970
1594989,1579068,1183140
1594864,1579220,1184029
1595180,1579752,1184027
1595358,1579564,1184101
1595244,1579666,1184661
1595637,1580150,1184396
1595747,1580186,1184910
1595632,1580674,1186057
1596147,1580940,1185662
1596266,1581065,1185900
1596040,1581009,1185127
1596080,1581541,1185733
1595990,1581525,1185652
1596268,1581399,1186390
1596610,1581935,1186071
1596778,1582398,1183991
1597214,1582762,1183983
1597858,1583107,1182621
1599406,1583367,1181373
1598341,1583162,1180011
1598015,1583437,1177073
1598147,1583157,1175290
1597616,1583269,1174559
1597551,1582901,1173513
1598773,1582099,1171895
1597431,1581275,1170952
1596967,1580667,1171138
1595841,1578306,1169515
1594621,1577281,1169697
1594330,1576937,1169808
1593923,1576569,1168586
1593273,1576627,1169098
1595465,1577008,1168836
1593903,1576690,1168445
1593654,1576771,1169772
1593302,1576737,1169842
1592872,1577061,1169766
1592976,1577157,1170453
1594849,1577086,1170860
1593539,1576933,1171284
1592880,1577590,1170661
1592928,1576523,1170386
1592542,1576195,1170891
1592448,1576395,1171078
1592596,1576395,1170526
1592524,1575790,1171101
1592426,1575946,1170221
1591779,1575322,1170770
1593569,1575634,1170797
1592206,1575653,1171213
1591848,1576560,1170643
1591676,1576316,1170413
1591611,1576538,1170450
1591819,1576629,1170681
1593303,1576589,1170672
1592323,1576665,1170935
1592089,1576357,1170655
1593079,1576790,1170672
1592743,1577419,1171622
1593345,1577576,1172198
1592381,1577560,1172883
1593094,1578120,1173173
1594830,1578044,1172882
1593466,1578855,1172485
1593025,1580183,1173211
1592611,1580238,1173970
1592671,1581114,1174760
1592754,1581404,1173940
1592655,1581711,1174904
1592618,1581544,1175651
1592672,1582108,1175285
1592818,1582197,1176063
1593210,1583269,1176988
1593685,1583597,1176472
1593983,1584219,1177169
1593895,1584315,1177470
1594141,1584912,1177232
1594480,1584768,1177668
1593810,1585192,1178674
1594676,1584619,1178320
1594824,1584534,1178434
1594826,1584908,1178924
1594914,1584782,1179309
1594916,1584452,1180107
1594939,1584571,1180220
1595165,1585072,1180844
1595476,1585009,1179835
1595603,1585773,1180766
1596067,1584919,1181325
1595475,1582973,1181740
1595317,1582328,1181981
1594767,1581508,1182325
1594567,1580548,1182639
1594116,1579453,1182141
1593191,1579077,1182019
1593384,1578403,1182892
1592760,1578282,1182950
1592143,1578322,1182748
1591763,1578083,1183089
1591766,1578576,1183295
1592181,1578371,1182095
1591885,1578150,1183265
1592147,1578498,1182750
1592241,1578173,1183625
1592167,1577863,1184646
1591974,1578234,1183950
1591598,1577695,1184388
1591218,1577592,1184299
1591383,1576579,1184977
1591449,1576728,1184560
1591100,1576675,1184541
1591277,1576991,1184057
1591390,1577081,1185388
1591344,1577557,1185368
1591822,1577934,1185578
1591874,1578025,1185886
1591443,1577795,1185644
1591761,1578419,1184298
1592057,1578605,1184421
1592461,1578859,1182318
1592422,1579010,1181791
1592719,1579317,1179625
1592826,1579502,1177632
1592976,1579199,1175845
1593179,1579323,1174406
1593507,1579426,1172031
1593347,1579830,1169255
1593162,1579923,1169171
1593096,1579930,1167416
1593448,1579784,1166904
1593854,1579602,1166190
1594217,1580083,1166232
1594553,1580827,1165565
1594888,1580909,1166045
1594801,1581191,1164295
1595488,1581392,1164586
1595448,1581273,1164281
1595454,1581763,1165264
1595325,1581600,1164324
1595371,1582101,1165308
1595926,1582188,1165007
1595944,1582203,1165177
1596181,1582730,1164980
1596175,1583241,1164863
1596948,1584157,1164568
1596929,1584345,1165114
1597599,1584332,1165355
1597674,1584360,1164981
1596700,1584241,1164867
1597562,1583694,1164788
1597312,1583337,1164149
1597048,1582884,1163649
1596788,1582046,1163918
1596657,1580998,1163348
1595263,1580095,1163449
1595611,1579307,1163128
1595162,1578364,1164267
1594936,1577531,1163409
1594472,1577069,1164100
1594349,1576655,1163873
1594551,1576447,1164536
1594192,1576334,1164194
1593920,1575710,1165586
1593688,1576089,1165782
1593237,1575831,1166072
1593170,1576179,1166605
1593063,1575878,1166543
1593135,1575955,1166870
1594243,1576048,1167809
1593148,1576246,1168047
1592530,1576561,1169224
1592560,1576295,1169367
1592588,1576262,1170394
1592594,1576101,1170569
1593517,1576319,1170275
1592521,1576039,1171230
1592221,1575539,1171313
1592249,1575480,1172553
1592029,1575595,1172558
1592127,1575613,1173204
1593665,1575236,1173407
1592608,1575114,1173106
1592317,1574914,1173786
1591968,1574770,1174773
1591939,1574516,1174056
1591546,1574735,1174324
1593128,1574954,1174295
1593128,1574882,1174960
1591717,1574894,1174654
1591522,1574715,1175158
1591591,1574846,1174701
1591295,1574595,1174754
1591479,1574700,1174687
1591773,1575091,1174354
1591638,1575104,1174426
1591544,1575421,1174125
1591601,1575695,1174928
1593591,1575466,1174985
1592235,1575522,1174509
1592082,1575528,1174405
1592154,1575632,1175049
1592337,1575817,1174998
1592473,1576119,1174413
1594404,1576076,1174989
1592930,1576117,1174540
1592268,1576623,1175134
1592734,1576777,1175504
1592411,1577109,1175893
1592429,1577654,1175613
1592542,1577291,1177075
1592720,1577676,1176830
1593081,1577634,1176930
1593107,1578404,1176669
1595086,1578325,1177047
1593503,1578451,1176250
1592907,1578631,1176931
1593013,1578486,1174631
1592979,1578684,1172866
1593700,1579700,1170857
1592892,1580086,1169021
1593819,1581040,1167909
1593994,1581137,1165457
1594022,1581598,1164039
1594199,1582126,1162047
1594405,1582235,1160681
1594508,1582362,1159247
1594509,1582458,1158382
1594222,1582462,1157498
1594889,1582668,1157195
1595117,1582338,1156595
1595379,1582193,1157829
1595917,1582512,1157444
1596162,1581946,1157445
1596716,1582546,1157401
1596552,1582135,1157611
1596504,1582242,1157203
1596514,1582220,1158103
1596759,1582709,1158376
1596543,1582618,1159561
1596385,1582881,1159034
1596262,1582317,1158835
1595954,1581877,1159040
1595913,1581251,1160004
1595723,1580552,1160080
1595078,1579344,1160085
1593878,1577151,1160598
1592815,1575707,1160088
1592225,1575084,1159667
1591664,1574602,1159963
1591575,1575135,1160133
1591428,1574382,1159757
1591243,1574989,1159547
1591134,1575094,1159110
1590915,1574981,1159472
1591057,1575063,1159130
1590683,1575332,1160691
1590619,1575415,1160747
1590094,1575341,1160149
1590042,1575121,1160280
1589661,1574942,1161259
1588901,1574283,1161690
1589029,1574794,1162408
1589276,1574534,1163024
1588907,1574566,1162559
1588681,1575036,1163318
1588931,1574895,1163651
1589283,1574900,1163642
1589374,1575233,1164756
1589468,1575981,1164949
1589753,1577398,1165536
1589924,1577642,1165415
1589767,1577735,1165875
1590036,1578203,1166706
1590034,1578227,1166515
1590055,1578258,1166627
1589881,1578694,1167213
1589712,1578924,1167394
1590359,1579028,1168299
1590420,1578702,1168998
1590654,1579109,1167957
1590819,1579171,1168240
1591271,1580009,1168495
1591409,1579953,1168649
1591147,1580110,1168540
1591638,1580358,1168333
1592014,1580339,1169446
1592106,1580571,1169414
1592126,1580926,1169954
1592115,1580740,1170273
1592427,1580799,1170722
1592920,1581064,1170376
1593144,1581593,1170582
1593633,1582212,1170710
1594218,1582197,1170566
1594120,1581597,1170243
1594016,1581190,1171399
1592590,1580547,1171359
1593026,1579738,1171780
1592606,1578602,1171781
1592580,1577601,1171915
1591855,1576382,1172153
1591670,1575898,1173263
1590177,1574862,1172914
1590183,1573998,1173286
1589969,1573576,1173200
1589925,1574535,1172890
1589747,1573583,1174311
1589704,1573568,1174099
1588890,1573609,1173855
1588931,1573579,1173586
1588409,1573934,1174622
1588636,1575793,1174706
1588379,1574661,1176029
1588549,1574291,1175156
1586657,1574580,1175280
1587470,1574648,1175049
1587894,1574696,1174731
1587912,1575918,1174203
1587564,1575080,1173750
1587638,1574886,1171910
1585916,1574358,1170984
1586849,1574439,1168652
1586905,1575059,1167197
1587081,1574902,1164230
1587164,1575151,1162189
1586447,1575348,1159698
1587187,1575819,1158835
1587167,1576513,1157460
1587151,1576048,1154136
1587327,1576558,1153939
1585675,1576955,1152924
1586673,1577208,1152488
1587229,1577183,1152915
1587426,1577565,1153581
1587496,1577733,1154036
1587606,1577838,1154359
1586193,1577706,1154554
1587343,1578262,1155753
1587528,1578289,1155800
1588150,1579018,1157116
1588293,1579276,1158276
1588648,1580048,1158214
1587758,1580042,1158496
1588513,1580348,1159947
1588352,1580591,1160627
1588702,1580636,1161675
1589038,1580592,1160883
1588832,1580570,1161646
1589048,1580978,1161465
1589145,1582390,1161356
1589589,1582808,1161393
1590220,1583567,1160739
1590499,1583523,1160133
1590665,1584255,1159806
1591007,1584300,1159545
1590857,1584919,1159182
1590750,1584863,1159632
1590868,1585420,1158481
1590703,1585813,1159581
1591158,1585893,1157617
1591129,1585775,1157390
1591095,1586227,1157660
1591623,1586208,1158080
1591988,1587192,1158716
1592407,1587807,1159253
1592498,1587496,1159376
1591916,1585297,1161220
1591672,1584994,1161424
1591135,1583848,1162887
1590886,1583112,1162473
1590238,1581421,1163960
1589441,1580685,1164598
1588995,1580769,1165359
1588669,1580560,1166436
1588590,1580644,1165973
1588321,1580360,1166187
1587727,1580732,1167127
1588168,1580913,1167877
1588186,1582052,1167505
1587990,1581816,1167715
1587948,1582471,1167924
1588096,1582151,1167178
1588077,1582521,1167778
1588130,1582179,1168041
1587739,1581338,1168873
1587382,1581260,1168974
1587532,1581004,1169190
1587216,1581288,1168446
1587780,1581438,1169290
1587831,1582216,1169847
1587889,1582301,1169365
1587992,1582926,1170061
1588284,1582967,1170134
1588569,1582857,1170461
1588410,1583249,1171326
1588889,1582939,1171063
1588885,1583338,1172255
1588879,1584198,1171730
1589493,1584696,1172629
1589573,1584923,1173490
1589696,1585269,1173517
1589706,1585567,1173956
1589907,1585869,1174572
1589954,1586387,1174782
1589845,1586480,1174585
1589842,1586757,1175233
1589799,1586549,1175672
1590010,1586610,1176019
1590261,1586904,1175490
1590629,1587061,1175549
1590641,1587602,1175720
1591294,1588582,1175701
1591595,1589067,1176080
1591766,1588888,1175653
1591992,1589352,1175122
1592153,1589486,1174021
1592507,1590098,1171056
1591919,1590170,1167486
1592383,1590281,1167486
1592501,1590381,1165088
1592705,1590405,1162984
1592726,1590854,1162294
1593018,1590767,1160341
1592863,1590488,1159297
1592716,1590432,1158682
1592775,1589912,1157318
1593063,1589077,1157423
1592771,1588284,1156436
1592267,1587319,1157282
1590970,1584986,1156436
1589689,1582693,1157039
1589431,1582305,1156339
1589064,1581789,1156281
1588664,1581486,1157042
1588423,1581601,1157793
1588155,1581988,1156689
1588075,1581890,1158050
1588223,1581953,1158399
1587757,1581585,1158362
1587692,1581717,1158834
1587363,1581633,1158357
1587391,1581356,1159216
1585844,1581542,1159620
1586989,1581676,1159930
1587370,1581703,1159342
1587547,1581877,1158482
1587695,1582150,1158062
1587725,1581757,1157380
1586582,1582142,1156770
1586997,1581992,1158120
1586965,1582321,1157531
1586894,1582858,1157199
1586894,1581930,1157003
1586573,1581788,1156839
1586526,1581635,1157278
1585548,1581413,1158256
1586211,1581153,1157862
1586192,1582337,1158049
1586271,1581185,1157863
1585028,1581448,1158740
1585902,1581144,1158813
1586023,1581392,1159833
1586243,1582833,1158751
1586010,1581463,1159154
1586021,1581372,1159998
1584584,1581337,1160891
1585890,1581519,1161993
1586542,1581683,1161753
1586883,1583708,1161986
1586939,1582774,1161367
1586863,1582679,1161754
1584818,1582905,1162064
1586427,1583434,1162800
1586437,1583781,1163351
1586437,1584969,1162992
1586654,1584289,1163561
1586884,1584237,1163790
1585315,1584277,1163532
1586881,1584395,1164745
1587231,1584374,1164465
1587112,1585814,1165228
1586864,1585560,1165075
1587094,1585534,1165434
1585384,1585444,1165236
1586824,1585613,1165047
1587341,1586170,1165421
1587124,1586478,1165368
1588220,1587311,1166120
1588022,1587592,1166204
1588544,1587646,1166914
1588675,1588303,1165949
1587536,1588162,1166618
1588344,1588137,1166737
1588681,1588986,1167383
1589040,1588979,1167485
1589435,1589520,1169162
1589073,1589909,1167920
1589591,1590452,1167601
1589658,1590725,1168261
1590459,1591359,1169049
1590399,1591986,1169199
1590613,1591991,1169382
1591393,1592481,1169081
1590569,1592518,1169641
1591268,1592980,1169128
1591583,1593059,1169932
1591315,1592447,1169784
1591254,1591138,1168184
1590152,1588026,1166138
1588811,1585993,1163462
1588116,1584253,1162475
1587637,1583630,1160006
1587572,1583639,1159056
1587584,1583140,1154978
1587202,1582884,1153977
1586677,1583090,1152608
1586701,1583145,1151138
1586893,1583291,1150442
1586666,1582903,1150042
1586391,1583411,1149168
1586606,1583258,1148707
1586414,1583028,1148000
1586384,1582871,1148265
1586470,1583075,1147705
1586604,1583198,1148063
1586274,1583302,1147115
1586202,1582472,1148158
1585840,1582421,1147367
1586025,1582643,1147670
1585868,1582781,1148891
1585684,1582660,1148569
1585560,1582912,1148576
1585507,1583429,1148807
1586065,1583020,1149487
1585878,1583003,1148608
1586338,1583824,1148808
1586256,1584172,1147548
1586883,1584638,1147637
1587198,1584704,1147280
1587105,1585170,1147146
1587424,1585713,1147148
1587648,1586000,1147517
1587455,1586534,1146186
1587572,1587216,1146636
1587636,1587833,1146204
1587552,1588007,1145695
1587614,1588608,1145724
1587855,1589306,1146478
1588078,1590391,1146282
1588643,1591293,1146751
1588905,1592006,1147086
1589229,1591852,1147511
1589320,1592217,1147938
1589761,1591996,1147985
1589891,1592308,1148092
1590018,1592304,1148647
1590248,1592286,1148615
1590215,1592143,1149217
1590406,1592637,1150037
1590403,1592722,1150257
1590862,1592059,1151400
1591220,1592598,1151338
1591596,1593274,1152303
1591509,1593849,1152649
1591989,1593912,1153260
1592370,1594324,1153305
1592549,1594656,1154164
1592110,1595110,1154251
1592415,1595344,1154403
1592512,1595663,1154554
1592639,1595611,1155188
1592816,1596142,1154310
1593072,1596057,1155345
1592954,1595858,1156212
1593303,1595984,1156086
1593359,1596056,1156538
1593591,1595848,1157410
1593770,1595665,1157571
1593656,1595236,1158486
1593343,1594498,1158238
1593334,1593862,1158588
1591919,1591208,1158797
1590790,1588749,1158891
1590377,1588831,1159510
1589993,1588282,1159861
1589941,1588017,1160054
1589622,1588385,1161104
1589245,1588187,1160807
1589207,1588132,1161263
1589223,1588042,1161702
1589159,1588470,1161137
1589198,1588107,1161464
1589047,1588127,1162153
1588728,1588194,1163089
1588747,1588253,1163419
1588833,1588326,1163663
1589235,1588698,1164553
1589163,1588623,1164138
1589226,1588388,1165351
1588707,1588669,1164854
1589184,1588647,1165475
1588321,1588920,1165810
1588316,1588878,1166281
1588316,1588864,1165362
1588418,1588601,1163781
1588642,1588487,1162413
1588134,1588639,1161124
1588447,1588337,1160014
1588393,1587823,1157784
1588456,1587827,1155353
1587930,1587975,1153200
1588088,1587536,1151353
1588040,1587523,1149393
1588388,1587754,1147723
1588130,1588104,1146471
1588377,1588484,1144655
1588643,1589010,1144237
1588558,1589207,1144135
1588954,1589783,1144093
1588989,1589904,1143815
1588639,1589876,1143948
1589269,1590173,1143836
1589134,1590429,1144040
1589133,1592270,1143934
1589120,1590970,1143180
1589426,1590400,1143107
1589057,1590661,1143337
1589937,1590522,1142886
1589441,1590694,1143938
1589627,1592792,1143328
1589773,1591673,1142925
1589955,1591499,1143653
1589133,1591728,1144013
1590418,1591596,1143889
1590317,1591453,1142827
1590411,1591906,1142820
1590582,1592822,1143115
1590778,1595065,1141651
1590884,1593576,1141518
1591140,1592921,1142061
1590128,1593215,1142246
1591378,1593760,1142508
1591055,1593688,1142407
1591248,1595756,1143411
1590960,1594613,1143106
1591467,1594393,1143192
1590210,1594642,1142939
1591500,1594374,1142818
1591609,1594444,1143720
1591828,1596393,1144901
1591613,1595234,1144652
1592252,1595203,1145228
1591056,1595132,1145951
1592545,1595109,1146664
1592280,1595237,1147254
1592953,1597214,1147967
1593040,1596438,1147957
1592712,1596553,1148063
1593391,1597021,1147970
1593809,1597148,1149189
1591559,1597214,1149867
1592817,1597529,1150423
1593443,1597041,1150224
1593950,1598958,1150474
1594339,1598320,1150927
1594177,1598315,1151824
1592370,1597989,1153040
1593936,1598048,1152977
1594535,1598120,1153373
1594768,1599640,1153169
1595134,1598353,1153374
1594964,1597666,1153593
1594545,1595790,1154975
1593391,1592623,1154408
1591758,1589789,1154872
1591739,1589821,1154202
1591604,1588918,1155824
1591138,1588438,1155841
1590573,1588519,1156054
1590275,1588627,1156536
1590239,1589165,1157153
1589858,1588990,1157271
1589842,1588650,1157754
1589368,1588061,1159428
1589499,1588154,1159355
1589426,1588269,1159718
1588726,1587957,1159374
1589011,1587866,1160057
1588902,1587637,1160729
1589074,1587460,1162083
1588400,1587305,1161096
1588461,1587190,1162428
1588349,1587149,1161899
1588470,1586960,1162185
1588380,1587312,1162971
1588356,1586936,1163244
1588371,1587369,1163187
1588570,1587485,1164093
1588723,1588079,1164427
1588985,1588608,1165008
1589181,1589161,1165735
1589157,1588923,1165289
1588712,1589287,1166047
1589005,1590316,1165945
1589196,1590159,1166367
1589115,1590010,1166261
1589382,1590869,1165616
1589657,1591404,1164080
1590152,1591811,1163110
1590456,1592035,1161290
1590227,1592522,1158867
1590223,1592696,1156517
1590802,1593230,1154896
1590931,1593438,1152578
1590845,1593853,1150228
1591233,1594013,1148301
1591379,1594082,1148257
1591129,1594465,1147634
1591546,1594422,1147289
1591544,1594118,1146748
1591616,1594188,1146386
1591947,1594759,1145829
1592229,1594629,1146267
1592002,1594997,1145565
1592868,1596015,1147131
1592803,1596010,1146046
1593081,1595988,1147870
1593284,1596662,1149054
1593354,1596501,1148673
1593395,1596752,1149506
1593446,1597292,1149242
1593808,1597411,1150260
1593867,1597029,1149373
1594440,1597523,1149776
1594611,1598153,1149559
1595347,1598824,1150499
1595598,1598716,1149472
1595049,1596726,1149849
1595157,1595970,1149083
1594914,1594843,1148966
1594687,1593935,1148112
1594038,1593243,1148293
1593311,1592449,1147348
1592849,1591551,1148328
1592647,1590788,1147802
1592324,1590540,1147407
1592125,1590026,1147511
1591969,1589182,1148196
1591450,1588823,1148550
1591206,1588800,1149079
1591426,1588533,1149989
1590884,1588678,1150317
1591286,1588783,1151230
1591109,1588526,1150543
1591001,1588727,1151098
1590965,1588792,1151593
1590860,1588942,1152487
1590702,1589136,1152948
1590702,1589162,1153367
1590545,1589045,1154002
1590332,1589884,1155186
1590491,1588857,1155647
1590419,1588743,1156178
1590171,1588954,1155431
1590268,1589014,1155754
1590460,1590362,1155243
1590209,1588815,1156789
1589707,1587772,1156959
1589761,1587661,1156997
1589130,1587426,1157249
1589553,1587969,1158402
1589258,1587797,1158591
1589798,1588118,1158318
1589886,1588939,1158540
1589742,1588658,1158001
1589922,1588491,1159106
1588293,1588942,1158470
1589358,1589102,1159140
1589710,1589267,1159531
1590132,1590423,1160644
1589819,1589471,1159014
1589776,1589920,1159874
1590142,1590491,1159894
1590311,1590590,1159696
1590661,1591099,1159373
1590610,1591335,1160118
1591134,1591806,1160775
1591253,1592811,1160203
1591095,1591900,1160788
1591324,1591911,1161000
1590621,1592342,1161018
1591534,1593187,1162327
1591837,1592620,1162709
1591365,1593137,1162327
1592130,1593788,1163339
1592527,1594631,1163103
1593138,1594886,1163154
1592901,1594580,1162480
1593513,1595285,1161735
1593856,1596164,1160116
1593767,1595440,1158514
1594046,1595962,1156510
1592159,1596034,1154535
1593333,1596179,1152254
1593921,1595700,1150329
1594180,1596671,1147860
1594323,1596392,1146748
1594892,1596541,1145210
1595142,1596623,1144062
1595851,1597153,1142872
1595622,1595765,1143295
1594784,1593037,1143586
1594624,1592360,1143053
1594404,1591288,1143056
1593778,1590392,1143509
1593519,1589102,1144123
1592916,1588601,1143019
1592759,1588487,1143500
1592433,1588290,1144163
1592259,1588076,1143921
1592006,1587856,1143414
1591759,1587793,1144241
1591784,1588617,1144553
1591509,1589100,1144407
1591446,1589275,1143862
1591486,1589339,1144371
1591384,1589030,1145068
1591386,1589092,1145382
1591334,1588382,1145253
1590927,1588249,1144444
1590933,1587775,1143633
1590615,1587864,1143909
1590770,1587267,1144338
1591180,1587170,1143622
1591399,1587161,1143060
1591242,1587218,1143318
1591552,1587127,1143523
1591806,1587113,1144352
1592099,1586932,1143686
1592232,1587205,1143906
1592391,1587029,1144446
1592835,1586829,1145139
1593271,1585949,1145605
1593630,1585233,1146569
1593678,1585610,1146714
1593699,1585483,1147017
1593825,1585929,1146016
1593770,1585771,1145968
1593711,1586292,1147037
1593876,1586516,1148973
1593886,1586788,1148641
1593887,1586592,1149300
1594033,1587201,1148976
1594081,1587821,1149919
1594443,1588731,1150478
1595030,1590146,1150395
1595130,1590488,1150968
1595174,1590782,1151688
1595261,1591517,1152461
1595460,1591473,1153659
1595557,1591477,1154101
1595566,1591413,1153595
1595600,1591365,1154309
1595807,1591482,1155120
1595978,1591556,1154845
1596145,1591595,1154780
1596353,1591792,1155794
1596152,1591631,1155070
1596238,1592055,1155595
1596355,1592014,1154680
1596639,1591881,1155671
1596731,1591268,1155700
1596859,1590721,1156050
1596802,1589461,1155927
1596447,1588543,1156743
1596310,1587469,1157102
1595434,1586445,1157327
1595375,1585408,1157118
1595375,1584554,1157773
1594592,1583464,1157640
1594268,1582499,1158264
1594064,1582109,1158539
1593796,1581251,1159077
1593490,1580601,1159005
1592637,1580268,1159450
1592454,1580223,1159663
1592411,1579926,1160342
1592337,1579846,1160541
1592145,1579703,1161349
1592214,1579197,1161568
1592013,1579057,1161878
1591713,1578953,1161564
1591558,1578774,1161008
1591867,1578767,1161399
1591421,1578610,1160205
1591360,1577903,1158102
1591253,1578345,1155706
1590949,1577859,1153855
1590742,1577303,1151398
1590896,1576897,1149321
1591398,1576083,1146225
1590688,1575900,1145480
1591086,1576042,1144567
1590882,1576158,1142976
1591636,1575676,1141308
1591737,1576523,1141236
1591905,1576620,1142253
1591734,1576869,1140799
1591987,1576779,1141319
1591966,1577199,1141610
1591934,1577145,1141659
1591885,1577195,1141507
1592255,1577753,1142683
1592150,1577932,1142466
1592323,1578037,1143150
1592032,1578033,1142967
1592392,1578624,1144217
1591927,1578747,1144131
1592870,1579259,1144751
1593148,1579489,1144986
1593251,1580301,1145886
1593321,1580365,1145611
1593289,1581001,1145659
1593447,1581438,1145055
1593292,1582266,1145886
1593788,1582389,1145697
1594032,1582636,1145243
1594060,1582664,1145160
1594105,1583414,1145093
1594388,1583413,1145532
1593850,1583851,1145066
1594477,1584905,1145344
1594899,1586272,1144878
1595282,1585820,1146671
1595679,1586907,1145893
1595751,1587486,1147014
1595929,1587513,1147732
1596052,1587661,1148289
1596016,1588016,1148448
1596252,1588590,1149082
1596781,1588907,1149732
1596713,1589032,1150302
1596835,1589830,1150353
1597031,1589742,1151465
1596953,1589836,1151088
1597219,1590114,1151688
1597172,1590370,1151699
1597426,1590356,1152411
1597408,1589809,1153601
1596835,1587040,1153869
1595914,1583955,1154862
1595825,1583443,1154847
1595286,1582752,1155278
1595260,1581849,1155453
1594753,1581670,1156028
1594428,1581437,1155469
1593957,1581782,1156139
1594106,1581499,1156128
1594009,1581561,1156708
1593936,1581600,1156473
1593807,1581613,1157747
1593654,1581244,1157781
1593319,1581426,1158641
1593414,1581345,1158308
1593570,1582242,1158888
1593447,1582178,1158715
1592869,1582005,1158860
1593176,1582331,1157937
1592835,1582201,1159362
1592929,1581959,1158794
1592741,1581773,1159947
1592468,1582020,1160440
1592382,1582149,1160441
1592408,1581959,1161177
1592234,1581870,1161458
1592338,1581906,1162597
1592398,1582100,1162224
1593033,1582674,1163040
1592877,1583291,1163001
1592990,1583379,1162892
1593266,1583618,1163655
1593314,1583598,1163748
1593262,1583851,1163453
1593403,1583973,1164589
1593663,1584365,1164836
1593387,1584814,1165500
1593981,1584977,1165542
1594000,1585101,1165507
1594589,1585581,1164452
1594578,1586340,1164068
1594725,1586651,1162523
1594778,1586856,1160652
1595062,1586994,1156842
1595104,1587350,1154351
1594992,1587693,1152887
1595169,1587634,1150491
1595343,1587825,1149268
1595366,1588180,1147777
1595258,1588465,1146925
1595150,1588628,1146453
1595438,1588560,1145956
1595549,1588882,1145803
1595677,1589091,1145701
1595604,1589375,1145935
1596290,1590017,1146655
1596661,1590742,1147124
1596765,1591529,1147205
1596873,1591980,1148125
1596802,1591962,1148957
1597239,1591655,1149749
1597430,1591509,1149661
1596833,1591172,1149577
1596672,1590385,1151088
1596544,1589278,1151646
1596247,1588318,1151010
1597662,1587572,1151316
1595274,1585097,1152114
1594607,1583494,1151163
1594568,1583197,1151195
1594237,1582846,1151565
1593358,1582927,1150575
1593677,1583648,1150418
1593584,1583926,1150469
1594429,1583880,1149989
1593854,1584234,1149770
1593247,1584676,1150409
1593432,1584330,1150666
1593456,1584646,1149596
1593524,1584680,1149634
1595676,1585052,1150447
1594007,1584817,1150758
1593184,1584467,1151815
1593308,1584524,1152326
1593234,1584500,1152425
1593635,1584708,1152899
1595679,1584340,1152827
1593397,1584316,1153186
1595121,1584442,1152969
1593059,1584464,1154160
1593232,1585131,1154033
1593500,1585184,1154378
1595465,1585561,1154432
1593525,1586002,1154971
1593482,1585714,1155783
1593555,1586193,1155435
1593698,1586359,1156069
1595955,1586185,1156261
1594540,1586053,1157301
1593795,1586379,1156772
1593954,1586646,1157071
1594339,1586914,1156320
1594585,1587355,1157047
1596645,1587441,1156880
1595328,1587284,1156439
1594673,1587604,1155919
1594804,1587421,1156472
1596642,1587984,1156705
1594791,1588444,1155719
1595306,1589220,1157174
1595286,1589419,1157778
1596776,1589548,1157607
1595606,1589895,1157930
1595509,1589959,1157410
1595652,1589959,1157377
1595775,1589866,1159027
1595946,1590126,1158586
1596495,1590732,1159087
1596207,1591129,1159012
1596999,1591749,1159170
1597080,1592378,1159227
1597389,1592289,1161390
1597672,1593095,1160633
1598066,1592789,1159772
1597579,1592844,1159206
1597523,1592171,1158208
1597490,1591489,1156548
1597455,1590561,1155468
1597141,1589839,1151470
1597000,1588578,1150059
1596327,1587350,1146705
1595952,1586471,1144860
1595593,1586105,1142345
1595614,1585486,1139727
1594444,1585198,1138799
1594329,1584267,1138284
1594030,1584075,1137476
1594067,1584305,1136368
1593930,1584324,1139050
1593734,1584264,1138144
1593608,1584339,1137207
1593313,1584943,1136916
1593915,1584802,1137298
1593432,1584888,1137779
1593421,1584790,1139096
1592975,1584790,1138301
1593251,1585104,1138375
1592894,1585162,1138222
1592651,1584889,1139647
1592913,1585215,1139560
1592795,1585231,1140219
1592769,1585444,1139759
1592620,1585843,1140496
1592724,1586245,1140458
1592816,1586100,1140375
1592903,1586549,1140996
1593186,1586737,1140874
1592978,1586928,1139878
1593027,1586677,1139866
1593162,1587098,1140101
1593524,1587265,1139673
1593621,1587548,1140562
1593800,1587884,1139945
1593796,1588706,1140430
1594067,1589311,1140668
1594019,1589727,1141098
1594147,1590245,1141716
1594333,1590400,1143641
1594553,1590777,1143517
1594343,1591044,1144384
1594353,1591293,1144221
1594709,1591500,1145180
1594531,1591925,1144829
1594779,1591607,1145661
1594603,1591895,1144935
1594887,1592029,1146017
1594600,1592360,1148231
1595309,1593479,1149084
1595996,1593968,1150766
1596103,1594189,1149245
1596372,1594920,1149762
1596476,1594672,1150224
1596155,1594252,1150683
1596599,1595276,1150052
1596709,1595953,1152414
1596657,1596083,1151178
1597030,1595914,1152274
1597164,1596442,1151639
1597645,1597391,1153589
1598122,1597394,1153327
1597913,1595981,1155031
1597006,1593004,1154290
1595949,1590586,1154934
1595836,1590088,1154906
1595642,1589838,1154213
1595200,1589516,1153713
1594700,1589644,1154522
1594658,1589249,1154637
1594834,1588922,1156322
1594487,1588894,1157435
1594557,1588968,1156829
1594287,1588487,1157764
1593886,1588480,1157438
1593942,1588827,1157951
1594057,1588171,1158398
1593432,1587980,1159414
1593839,1589549,1159038
1593834,1588436,1160406
1593882,1588131,1159957
1591952,1588284,1161283
1593082,1588138,1160774
1592942,1588213,1162225
1593187,1589526,1162521
1593631,1587769,1163693
1591539,1587585,1163401
1592689,1587689,1164192
1592779,1587603,1163529
1593037,1589248,1162905
1593042,1588395,1161970
1593338,1588318,1160702
1591836,1588599,1158540
1593120,1588409,1154456
1593266,1588714,1151695
1593665,1589974,1149390
1592038,1589440,1147485
1593730,1591020,1145569
1593849,1590555,1144389
1593889,1590439,1143213
1592270,1590636,1143621
1593277,1590992,1143085
1593493,1590846,1143752
1593962,1591849,1143311
1594163,1591030,1144371
1594208,1591148,1143927
1592565,1590903,1144885
1593632,1590851,1144902
1593945,1591306,1145733
1594357,1592278,1145854
1594812,1591860,1146022
1594829,1591898,1145564
1593612,1591868,1146136
1594937,1592983,1146169
1594259,1592928,1147437
1594932,1593508,1148229
1595157,1593185,1148752
1594871,1594124,1148164
1595390,1594263,1147518
1594152,1594811,1147614
1595076,1594922,1147024
1595174,1594888,1147475
1595466,1595476,1147709
1595715,1596079,1147177
1596627,1596910,1147167
1596351,1597057,1147930
1596672,1597587,1146761
1596559,1597792,1147467
1596954,1597924,1147685
1596836,1597997,1148477
1597268,1597866,1148831
1597238,1598570,1149007
1596861,1598916,1148826
1597096,1598928,1148564
1597367,1599227,1148300
1597540,1599379,1150060
1597528,1599442,1149693
1597549,1599148,1151122
1597520,1598834,1151826
1597739,1598724,1152065
1597653,1598443,1152262
1598057,1597634,1152518
1597769,1596888,1152399
1597594,1595879,1152572
1596817,1595147,1152445
1596866,1594433,1152648
1596648,1593925,1152779
1595993,1593284,1153310
1595484,1592244,1154213
1595484,1592204,1155225
1595165,1591917,1154991
1595031,1591595,1155245
1594986,1591698,1154574
1594804,1591378,1155665
1594550,1591009,1155808
1593945,1591574,1155621
1594193,1591577,1155274
1594014,1591456,1155137
1594096,1591466,1155427
1593919,1591432,1155365
1593843,1591218,1156244
1593672,1591299,1155974
1593660,1590963,1156369
1593817,1591423,1156310
1593902,1591206,1156827
1593950,1591532,1157037
1593492,1590925,1157227
1592946,1590367,1156673
1593070,1590450,1156673
1593052,1590544,1157924
1592914,1590314,1156757
1592588,1590634,1158139
1592414,1590563,1158374
1592449,1590592,1159007
1592527,1590315,1158967
1592548,1590691,1159025
1592411,1590501,1159554
1592393,1590824,1158744
1592683,1591463,1158132
1592892,1592355,1157203
1593116,1592592,1156311
1593013,1592836,1153640
1593237,1593297,1149331
1593029,1593429,1146375
1592843,1593786,1144131
1592835,1594176,1142598
1592876,1594241,1140926
1592766,1594454,1140765
1592933,1594774,1139400
1593042,1595040,1138638
1593187,1594476,1138131
1593434,1595039,1138347
1593394,1595357,1136984
1593960,1595901,1138683
1594032,1596122,1137548
1594094,1596280,1137430
1594291,1596308,1136870
1593988,1596624,1137272
1593935,1596818,1138184
1594311,1597401,1139907
1594568,1597477,1139365
1594213,1597203,1139924
1594689,1597838,1139747
1595000,1597809,1140727
1595483,1598351,1141091
1595844,1598429,1140325
1596444,1598541,1140790
1596391,1598556,1140338
1596383,1598520,1141114
1596322,1598575,1140357
1596700,1598736,1141280
1596979,1598719,1140852
1597252,1598293,1140532
1597028,1596924,1140281
1596282,1594065,1140595
1595753,1592513,1140529
1594779,1590998,1140936
1594044,1590575,1140871
1594203,1590969,1141462
1593992,1590470,1140957
1594028,1590614,1141047
1594125,1590780,1141972
1593966,1590884,1143350
1593227,1591112,1142586
1593577,1591211,1142787
1593787,1591073,1143335
1593672,1591232,1143573
1593642,1591239,1145505
1593299,1591314,1144880
1593120,1590773,1145085
1593608,1590904,1145567
1593425,1590608,1146026
1593267,1589670,1146554
1592713,1589412,1147657
1592555,1589107,1147017
1592862,1589218,1147018
1592532,1589333,1146978
1592368,1589546,1147954
1592589,1589480,1147429
1592994,1589573,1149399
1592594,1589638,1148103
1592502,1589807,1149024
1592381,1590089,1149246
1592703,1590066,1149562
1592744,1590176,1149637
1593133,1590853,1150153
1593438,1590947,1150274
1592851,1590978,1151861
1593167,1591200,1151860
1593294,1591344,1152615
1593076,1591744,1154232
1592880,1592041,1153407
1593034,1591886,1154316
1593216,1591971,1154202
1593340,1592146,1154761
1593358,1591836,1154262
1593273,1591731,1156120
1593292,1591934,1155786
1593440,1592256,1156610
1593516,1592185,1156517
1593985,1592499,1156835
1593998,1592548,1156385
1594080,1592183,1158484
1594173,1592618,1156729
1593958,1592655,1157564
1593790,1592877,1156692
1593976,1593330,1157219
1593976,1593492,1157103
1593748,1593728,1158226
1593988,1593777,1158043
1594290,1593882,1158529
1594313,1594225,1159503
1594372,1593801,1159731
1594391,1594146,1160806
1594627,1594558,1159762
1594543,1594510,1160335
1594852,1595250,1158797
1595105,1594658,1158104
1594587,1593273,1156846
1593870,1590410,1154560
1592941,1589022,1152226
1592846,1588595,1150442
1592586,1588406,1147381
1592650,1588282,1144814
1592203,1588509,1142133
1591985,1588487,1141507
1591416,1588759,1140307
1592015,1588370,1139812
1591668,1588169,1139461
1591623,1588299,1138510
1591385,1588204,1138448
1591267,1588425,1138089
1591322,1589088,1138390
1591532,1589621,1137741
1591416,1588647,1137775
1591014,1588020,1137839
1591162,1588373,1138538
1590853,1588092,1138310
1590971,1587923,1139278
1590663,1587825,1138746
1590376,1587990,1139171
1590855,1587597,1138670
1590436,1587665,1139785
1590793,1588126,1139448
1590606,1588683,1139872
1591006,1589735,1139123
1591283,1589781,1140004
1590939,1589431,1138708
1591552,1590392,1139837
1591555,1590135,1139794
1591707,1590005,1139573
1591591,1590233,1138860
1591469,1590692,1140080
1591082,1590740,1139647
1591394,1590690,1139282
1591514,1591006,1140043
1591447,1591070,1140172
1591735,1591443,1140282
1592219,1591654,1140857
1592667,1592343,1141474
1592667,1592656,1141232
1592706,1592538,1142398
1593155,1592806,1142187
1593200,1592955,1142414
1593261,1593422,1143412
1593394,1593288,1143100
1593388,1593623,1143488
1593554,1593631,1143955
1593829,1593927,1144506
1593750,1594000,1144784
1593679,1593934,1145266
1593721,1593957,1145696
1593838,1594134,1145651
1594291,1595298,1145947
1595056,1596124,1147055
1594858,1595627,1148480
1594324,1593443,1148501
1594348,1592785,1149156
1593909,1591925,1150320
1593338,1590751,1149972
1592873,1590446,1151213
1592846,1589303,1151203
1592121,1588920,1151909
1591949,1588765,1152333
1591456,1588645,1153955
1591422,1589206,1153852
1592540,1589452,1152883
1590569,1589753,1153267
1590334,1590386,1154062
1590145,1590261,1153817
1590171,1590437,1153815
1589846,1590523,1154406
1589436,1590624,1154356
1589539,1590669,1154706
1589204,1590936,1155548
1588641,1590960,1156133
1588823,1591375,1156704
1588816,1591927,1156847
1590261,1592287,1156254
1588609,1592590,1157681
1588758,1592789,1158174
1589014,1592881,1158314
1590879,1593348,1158473
1589162,1593902,1158690
1588960,1593920,1159237
1588913,1593488,1159299
1589179,1593876,1160241
1589088,1593939,1160610
1590999,1593753,1160094
1589494,1593701,1160875
1589407,1594244,1160944
1590180,1595116,1161652
1589785,1595488,1161893
1590416,1595466,1162534
1590340,1596122,1162744
1590038,1595946,1162618
1590404,1596014,1163394
1590748,1596386,1162054
1591924,1596767,1162837
1590624,1596491,1163397
1590699,1596596,1164134
1590573,1596385,1164159
1590703,1596572,1163629
1590926,1597009,1162912
1592397,1596915,1161208
1591314,1597140,1159580
1590955,1597572,1156753
1591111,1597490,1154420
1591487,1597611,1152087
1591598,1597931,1150562
1593827,1597687,1148354
1592376,1598026,1146323
1592000,1598386,1145265
1592545,1599280,1144806
1592490,1599533,1143763
1592579,1599859,1142678
1592417,1599728,1141795
1592766,1600159,1142737
1594823,1600389,1143333
1592890,1600458,1144186
1593114,1599941,1144250
1593021,1599925,1144972
1593376,1600209,1145230
1592993,1600159,1146131
1593341,1600579,1146131
1593496,1600747,1145388
1593794,1600877,1146030
1594088,1600886,1146196
1594104,1601151,1147033
1593989,1601282,1146774
1594379,1601669,1148021
1594164,1601821,1147590
1594516,1602039,1146555
1594623,1602481,1145822
1594850,1602726,1146499
1594843,1602925,1145811
1594986,1602954,1147069
1595320,1602989,1145410
1595285,1603240,1145559
1595615,1603739,1144928
1595857,1604306,1144751
1596448,1604879,1143855
1596207,1604053,1145847
1595595,1601059,1144923
1595806,1600842,1145654
1595644,1599892,1145931
1595448,1599455,1147325
1594797,1599016,1148286
1594368,1599072,1148472
1594322,1598576,1149120
1594137,1598309,1148813
1594114,1598324,1149143
1593881,1598324,1148992
1593588,1597913,1151184
1593561,1597894,1150606
1593608,1597793,1150716
1593147,1598018,1151196
1593539,1597908,1151190
1593373,1597927,1151298
1593283,1598444,1152562
1593262,1598555,1152938
1593273,1597826,1153026
1593290,1597980,1152628
1593266,1597751,1152329
1593071,1597898,1152449
1592864,1598010,1154103
1592948,1597340,1153189
1592680,1597199,1153294
1592716,1597530,1153637
1592805,1597094,1154013
1592349,1596583,1155092
1592344,1597132,1154027
1592416,1596756,1154593
1592580,1596890,1154053
1593013,1596620,1154680
1592716,1596697,1153620
1592745,1596667,1154957
1592605,1597326,1154144
1592771,1597575,1154614
1592800,1598018,1154979
1592626,1597710,1155491
1592716,1598061,1155114
1593063,1598138,1157267
1592524,1598384,1155492
1592450,1598407,1156165
1592500,1598558,1155377
1592864,1598326,1155972
1592880,1598886,1156104
1593104,1598898,1157341
1592562,1598418,1156961
1592726,1598699,1157162
1592725,1598319,1157303
1592966,1598564,1157396
