GREEN,RED,IR
1311257,1951952,1960887
1311354,1952371,1961958
1311640,1952652,1962416
1311516,1952500,1962310
1311774,1952178,1962767
1311681,1952305,1962767
1311850,1951747,1962455
1311954,1952344,1962569
1311772,1952551,1962465
1311522,1952159,1962742
1311522,1952292,1962093
1311675,1952138,1961419
1311522,1952212,1960775
1311592,1951924,1960184
1311629,1951257,1958977
1311277,1951207,1958635
1311083,1950957,1957656
1311178,1951305,1957565
1311309,1951151,1955888
1311189,1951898,1956295
1311096,1951938,1956784
1311051,1951717,1956439
1311151,1952463,1956761
1311180,1952739,1955842
1311323,1952957,1955763
1311705,1953189,1956253
1311580,1953210,1958281
1311514,1953018,1958145
1311501,1953499,1959095
1311640,1953493,1958786
1311669,1953822,1959579
1311631,1954322,1960165
1311631,1954342,1960653
1311738,1954635,1959867
1311936,1954738,1960509
1311956,1954641,1959743
1312031,1954581,1960464
1312124,1954061,1961304
1312314,1954281,1961291
1312452,1954745,1960860
1312570,1954522,1961085
1312674,1955019,1962728
1312802,1955678,1961099
1312787,1955239,1961968
1313014,1955565,1960543
1312926,1955597,1961161
1313426,1955636,1960631
1313437,1955343,1960339
1313556,1955347,1962197
1313675,1955042,1960948
1313580,1955550,1962401
1313925,1955350,1961457
1313859,1956038,1961413
1313586,1956011,1961425
1313759,1956029,1962601
1313759,1956240,1964522
1313948,1956428,1963427
1314175,1956700,1963231
1314172,1956868,1964985
1314314,1956377,1964874
1314342,1956775,1964288
1314673,1956769,1965440
1314766,1956923,1965846
1314886,1956815,1966033
1314955,1956025,1965478
1314753,1954933,1966178
1314347,1953871,1966821
1314128,1952343,1966061
1313913,1951490,1967152
1313588,1950915,1968065
1313172,1950232,1967624
1312650,1949541,1968596
1311972,1948701,1969067
1311743,1948750,1969225
1311361,1948555,1968033
1310514,1948837,1968935
1310514,1948524,1968940
1310396,1948470,1969057
1310240,1948313,1968390
1310021,1948558,1966421
1310084,1948804,1965349
1309895,1948659,1964146
1309134,1948452,1963327
1309541,1948648,1960976
1309469,1948670,1959511
1309235,1948411,1958956
1309368,1948045,1957928
1309366,1947818,1955825
1309340,1947647,1956408
1309299,1947970,1955013
1309288,1948239,1955422
1309480,1948435,1954436
1309699,1948499,1956083
1309609,1947789,1956132
1309483,1947621,1957125
1309292,1947610,1955268
1309220,1947263,1956315
1309024,1947122,1956947
1308686,1946819,1957550
1308686,1946616,1958103
1308647,1947023,1957935
1308571,1946516,1958775
1308272,1946143,1959716
1308151,1945438,1959372
1308018,1945419,1959271
1307873,1945776,1959172
1307881,1945872,1959548
1307742,1946251,1960003
1307768,1946411,1958960
1307865,1945898,1959991
1307836,1945999,1959433
1307669,1946424,1959419
1307949,1946391,1959516
1308241,1946666,1957846
1308251,1946637,1958045
1308141,1946611,1958403
1308247,1946667,1958202
1308362,1946415,1957901
1308517,1946402,1957377
1308123,1946623,1957831
1308193,1947025,1958926
1308193,1947176,1958696
1308326,1947263,1957587
1308293,1946644,1959197
1308759,1948089,1958819
1308578,1948104,1958829
1308721,1948218,1959510
1308820,1948708,1959958
1309067,1948918,1960836
1309221,1949449,1961302
1309445,1949715,1961085
1309445,1949518,1961758
1309548,1949111,1961140
1309466,1948984,1962339
1309682,1948782,1962797
1309180,1948583,1962021
1309877,1948719,1961115
1310045,1948668,1962348
1310203,1948651,1963238
1310160,1948903,1963747
1310298,1949068,1964443
1310530,1949596,1964705
1310602,1949549,1965102
1310602,1949391,1965152
1310563,1949008,1965309
1310789,1948916,1966471
1310824,1948898,1966270
1310781,1948499,1966913
1310916,1947329,1967333
1310134,1945146,1967462
1310483,1944115,1966910
1309301,1942605,1968884
1308421,1941864,1968646
1307553,1941323,1967741
1306878,1939554,1967308
1306166,1938800,1967600
1305865,1938434,1966104
1305680,1937864,1963431
1305946,1938031,1960985
1305018,1937920,1958588
1304767,1937609,1956883
1304298,1937392,1954358
1304708,1937420,1951899
1304211,1937734,1947929
1303746,1937738,1947107
1303644,1937496,1946756
1303644,1937545,1946594
1303394,1937131,1945261
1303334,1936777,1946785
1303227,1936312,1945879
1303159,1935496,1946265
1303074,1935264,1944787
1303128,1934581,1945950
1303010,1935088,1945951
1303136,1934514,1948290
1302878,1934434,1947150
1302713,1933917,1947136
1302591,1932525,1947362
1302409,1932150,1949214
1302355,1931744,1949195
1302311,1931114,1948299
1302289,1930572,1947074
1302055,1930138,1947094
1301691,1929720,1947895
1301536,1929599,1947241
1301278,1930013,1945162
1300966,1930179,1943851
1300687,1929932,1941408
1300687,1929421,1939619
1300605,1929372,1938454
1300448,1929214,1937820
1300563,1928662,1937260
1300451,1928478,1936084
1300413,1928271,1935942
1300442,1928653,1934508
1300386,1929643,1933622
1300490,1930005,1932810
1300677,1930066,1933823
1300642,1930223,1933907
1300683,1930047,1932865
1300684,1930002,1931434
1300516,1929860,1932253
1300926,1928962,1931144
1301120,1929156,1931341
1301331,1929478,1930794
1301377,1929639,1931565
1301528,1929258,1931424
1301436,1929707,1931282
1301732,1929693,1930104
1301798,1929792,1930629
1301540,1930337,1931858
1301540,1930182,1930134
1301393,1930572,1931150
1301619,1931034,1930630
1301744,1931517,1931855
1301856,1931397,1931603
1302079,1931718,1930230
1302417,1931963,1930293
1302443,1931829,1929734
1302621,1931560,1929900
1302699,1931055,1930079
1302807,1931357,1929139
1302918,1931036,1930005
1303001,1931091,1930116
1303174,1931358,1929607
1303347,1931411,1929100
1303447,1931824,1929140
1303787,1932040,1930476
1303893,1932316,1931043
1303843,1933046,1930884
1304120,1933540,1931962
1304264,1933480,1930941
1304106,1932990,1930872
1303785,1931820,1931175
1303785,1930155,1931290
1303378,1928628,1931704
1302913,1927253,1931280
1302212,1925992,1931558
1301337,1924381,1931766
1300641,1922939,1931283
1298363,1922063,1930299
1297631,1922150,1929751
1297237,1921870,1929005
1296814,1922026,1925616
1296583,1921822,1924011
1296058,1921324,1920210
1296089,1921071,1919381
1295810,1921199,1918271
1295815,1921138,1916164
1295883,1921144,1914351
1295746,1921425,1913684
1295634,1921500,1913094
1295677,1921552,1912401
1295642,1921729,1912558
1295469,1922102,1913678
1295338,1922853,1913706
1295338,1922958,1913841
1295317,1923372,1916338
1295291,1923755,1918172
1295543,1923667,1918769
1295492,1923259,1918478
1295610,1922496,1919498
1295193,1921842,1919924
1294906,1921835,1921033
1294956,1920911,1922805
1294788,1920546,1922877
1294490,1920083,1923652
1294264,1919073,1924305
1293792,1918464,1924250
1293660,1918571,1925438
1293601,1918800,1925313
1293852,1919056,1925375
1293517,1919398,1925139
1293371,1919739,1925243
1293312,1919742,1924488
1293320,1920097,1925935
1293356,1920527,1926112
1293230,1920860,1925747
1293192,1921590,1925373
1293192,1921909,1925203
1293263,1921925,1924898
1293269,1922334,1925129
1293439,1922283,1924833
1293302,1921610,1924095
1293292,1922146,1924362
1293784,1922799,1926243
1293996,1923204,1926975
1294081,1923444,1928446
1294055,1924043,1928242
1294138,1924279,1927156
1294257,1923656,1925613
1294357,1923875,1926225
1294591,1923879,1927577
1294834,1924285,1927407
1295153,1924738,1927857
1295168,1925251,1928007
1295536,1925319,1928096
1294882,1925637,1926984
1295507,1925802,1928321
1296047,1926028,1927699
1295722,1925980,1927576
1294906,1925875,1928976
1294906,1926005,1930554
1295714,1926081,1929732
1296044,1926788,1930798
1296291,1927399,1930628
1296354,1927484,1928467
1296534,1928561,1930561
1296614,1930097,1931498
1297150,1930458,1931706
1297271,1930699,1930831
1297379,1930712,1931783
1297501,1930238,1931092
1297296,1929318,1930745
1297113,1929110,1932435
1296810,1928292,1932524
1297198,1927468,1932784
1295990,1926435,1932233
1295028,1925995,1932987
1294085,1925026,1934153
1293327,1924783,1932987
1292668,1924642,1932422
1291979,1924508,1931501
1291202,1924337,1932186
1291202,1924463,1930914
1290870,1924122,1929342
1290563,1924367,1927915
1290246,1924194,1926432
1290178,1924661,1922954
1290693,1924214,1921301
1289915,1924918,1919676
1290363,1925712,1917319
1290068,1925976,1917180
1290068,1925952,1915531
1290126,1926037,1915560
1290101,1925571,1915433
1290463,1925695,1914510
1290375,1926263,1915543
1290683,1926873,1914784
1290853,1927765,1915508
1290723,1928302,1915682
1291023,1928855,1916786
1291139,1929140,1917103
1290981,1929399,1919046
1290961,1929783,1918840
1290742,1929897,1919295
1290522,1929846,1919465
1290522,1930258,1921250
1290440,1930829,1922203
1290345,1931310,1922452
1290311,1932027,1922683
1290299,1932205,1923095
1289950,1933557,1922125
1290069,1934530,1923307
1290129,1935957,1921739
1290291,1936877,1922721
1290308,1937862,1923128
1290608,1938714,1924251
1290673,1939750,1923665
1290836,1941180,1923866
1291110,1942915,1922751
1291461,1944048,1922979
1291632,1944926,1921894
1291760,1946146,1922382
1292021,1945899,1921531
1292451,1946360,1921713
1292631,1946756,1921637
1292677,1947483,1921998
1292754,1948190,1922403
1292754,1948818,1922651
1293022,1949770,1922381
1293183,1951383,1922501
1293611,1951544,1923354
1293880,1951741,1922783
1294100,1951875,1924681
1294845,1953121,1924060
1295171,1954086,1924030
1295389,1954571,1924023
1295718,1955776,1925724
1296000,1956235,1925801
1296036,1956791,1925312
1296330,1958161,1926267
1296642,1959042,1926849
1296880,1960378,1927229
1297355,1960774,1927467
1297675,1961604,1927110
1297804,1961458,1927707
1297627,1961543,1929001
1297475,1961309,1930384
1297266,1961394,1929372
1296638,1960910,1931562
1296638,1960179,1931426
1296008,1960128,1930088
1295405,1960170,1931209
1294730,1960769,1930152
1294203,1961272,1931105
1293544,1961720,1930991
1293022,1963074,1931316
1292537,1965776,1930811
1292308,1967230,1928842
1292527,1969205,1926913
1292398,1970856,1925686
1292521,1972210,1921193
1292450,1973410,1920641
1292815,1974964,1918945
1293047,1976849,1917819
1293476,1978372,1915399
1293655,1979860,1915036
1293972,1981327,1915014
1293850,1982334,1914486
1294188,1983860,1914912
1294465,1985048,1914464
1294719,1986902,1915344
1294833,1988062,1917283
1294833,1988882,1917728
1295112,1989611,1917784
1295338,1990316,1918997
1295677,1990729,1919078
1295688,1991335,1919500
1295884,1991446,1921206
1296201,1992266,1921935
1296199,1993006,1922488
1296276,1993481,1922217
1296390,1994371,1923020
1296539,1994374,1924067
1296629,1994789,1925888
1296533,1995040,1926200
1297039,1995895,1925685
1297061,1996359,1925937
1297524,1997120,1926447
1297650,1998228,1926444
1297759,1998240,1926932
1298236,1999078,1924730
1298423,1999656,1925889
1298618,2000342,1926186
1298679,2001325,1926008
1298679,2001738,1925873
1298683,2002370,1925310
1299124,2002800,1926069
1299393,2003420,1925355
1299694,2003581,1925879
1299940,2003575,1925916
1300262,2004043,1926538
1300893,2004983,1928651
1301207,2005649,1927886
1301558,2005847,1928105
1301814,2006428,1928905
1302083,2006325,1930509
1302349,2006533,1929950
1302365,2007108,1929479
1302944,2007452,1930621
1303409,2008017,1931086
1303654,2008377,1932114
1303807,2008435,1932940
1304194,2008581,1932354
1304464,2009109,1931943
1304653,2009197,1933047
1304872,2010087,1932738
1304983,2009735,1934176
1304983,2009831,1934529
1305218,2009694,1934376
1305473,2009707,1935257
1305719,2009959,1935518
1306135,2009740,1936066
1306476,2009791,1937749
1306429,2010102,1937118
1307441,2009817,1937640
1307571,2009804,1938133
1307776,2009686,1937985
1307989,2009242,1939179
1307955,2008325,1941454
1307918,2007045,1940682
1307609,2005904,1940952
1307455,2004217,1940432
1306962,2002493,1939793
1306144,2000233,1938144
1305446,1998184,1934480
1304914,1995923,1933433
1304007,1994703,1930950
1303493,1993368,1928720
1302550,1992695,1927547
1302026,1991554,1928085
1302026,1990620,1927317
1301388,1989671,1927605
1300910,1988926,1926673
1300862,1987973,1927391
1300714,1986713,1927557
1301330,1985460,1927939
1300123,1984352,1929084
1300532,1983800,1928715
1300001,1982179,1929485
1299873,1981004,1930520
1299789,1979482,1930565
1299525,1978227,1931534
1299451,1977142,1931700
1299450,1976215,1932057
1299645,1975360,1934734
1299602,1974728,1935234
1299427,1973653,1936448
1299413,1972224,1937085
1299254,1970482,1936781
1299254,1969158,1936445
1298843,1967630,1937273
1298300,1966115,1937065
1298300,1964088,1938461
1297929,1961771,1937535
1297549,1958911,1938244
1297158,1956689,1938752
1296904,1954575,1938155
1296518,1952351,1936556
1295412,1948674,1938067
1294861,1947196,1936851
1294759,1945180,1938030
1294557,1943511,1938568
1294264,1941942,1937687
1294140,1933192,1937424
1293664,1927951,1938133
1293711,1924865,1937758
1293766,1922746,1938915
1293617,1920595,1940065
1293374,1918461,1941159
1293586,1916692,1941894
1293420,1915252,1941134
1293464,1913861,1940509
1293241,1912732,1941048
1293130,1912045,1942390
1292911,1911499,1943321
1292911,1911266,1943484
1292924,1910776,1945271
1293006,1909382,1944361
1293131,1908219,1945217
1293030,1906982,1945938
1293083,1906039,1946664
1292954,1904588,1947071
1293079,1903712,1948512
1292910,1902371,1947723
1293120,1901654,1948288
1293128,1900926,1949574
1292979,1899930,1948436
1292899,1899817,1949508
1293282,1900457,1951687
1293163,1900513,1951158
1293443,1900192,1951399
1293285,1899497,1952217
1293432,1898787,1952011
1293332,1898373,1951903
1293197,1897953,1953305
1293697,1897794,1952354
1293377,1898169,1951925
1293377,1898427,1951541
1293342,1899199,1949994
1293607,1900160,1948965
1293655,1901027,1946546
1293656,1900473,1945391
1293846,1899983,1945454
1293902,1900080,1943021
1294027,1900273,1941605
1294065,1900122,1941382
1294335,1900519,1940442
1294330,1900996,1940871
1294025,1900473,1940746
1293707,1899282,1940817
1293324,1897986,1940786
1292733,1896358,1940877
1291839,1895106,1942507
1290482,1892943,1941871
1289499,1890824,1943254
1288269,1888977,1943433
1287084,1887823,1943640
1286113,1887132,1944720
1285064,1886144,1945967
1283942,1885386,1945632
1283942,1885313,1947467
1283434,1884532,1946476
1282946,1884578,1945685
1282425,1884590,1946971
1282032,1883911,1947992
1281749,1883564,1948155
1281113,1883126,1948427
1280980,1883684,1948270
1280987,1883824,1948740
1280841,1884719,1948936
1280720,1884626,1949030
1280429,1884587,1947435
1280416,1884058,1948384
1280476,1883931,1947174
1280700,1883314,1947670
1280510,1882851,1947475
1280656,1882598,1946221
1280528,1882313,1947497
1280454,1882736,1947180
1280260,1883636,1949305
1279990,1884287,1948125
1279670,1883994,1948227
1279670,1882818,1947685
1279379,1881935,1948542
1279125,1881107,1948861
1279117,1880844,1950574
1278799,1880087,1949738
1278487,1879721,1950881
1278126,1880981,1948812
1277823,1881646,1950816
1277788,1881213,1950392
1277975,1880306,1951176
1277867,1879773,1952915
1277584,1879631,1951905
1277908,1879781,1951562
1277795,1880472,1952282
1277882,1881102,1953275
1278386,1881578,1952814
1278377,1882160,1953838
1278354,1882580,1954148
1278559,1883386,1954213
1278659,1883485,1955027
1278932,1884002,1955794
1279019,1884019,1955160
1279019,1884369,1956076
1279021,1884544,1955303
1279233,1885143,1956070
1279436,1886129,1956260
1279753,1886561,1956927
1279910,1887100,1956775
1280468,1889069,1955320
1280543,1889684,1956049
1280745,1889374,1953677
1281001,1889167,1953468
1281520,1889452,1952703
1281392,1889165,1949827
1281429,1889239,1948515
1281846,1889558,1945383
1281998,1890237,1946395
1282345,1891238,1945165
1282647,1892253,1945676
1282857,1892422,1946187
1283024,1891666,1945108
1282995,1891504,1946336
1283469,1891170,1945714
1283438,1891783,1947437
1283442,1891902,1946714
1283442,1891614,1946924
1283669,1891762,1946462
1283665,1892208,1947206
1283969,1893129,1947452
1284099,1893331,1948548
1284369,1893631,1948347
1284855,1895087,1949377
1284917,1895370,1950848
1284998,1895093,1950560
1284651,1894492,1949710
1283785,1892767,1949600
1282883,1890505,1949636
1281903,1887738,1951912
1280724,1885386,1951355
1279612,1883361,1951427
1278412,1881765,1952302
1277612,1880949,1951990
1276829,1880068,1951808
1275640,1879781,1952295
1275099,1879915,1950267
1274675,1880480,1950935
1273985,1880481,1950594
1273985,1879812,1950025
1273578,1879422,1951742
1273655,1878962,1950955
1273385,1879732,1950903
1273135,1880431,1951903
1273013,1880915,1952659
1273051,1881621,1950900
1273463,1885960,1951649
1273392,1885993,1952589
1273752,1886330,1953876
1273517,1887140,1952070
1273795,1887720,1952672
1274194,1887600,1952015
1274331,1888020,1953146
1274589,1887941,1953461
1274763,1887601,1954826
1274918,1886982,1955588
1274887,1886568,1954306
1274647,1885996,1954362
1274555,1886454,1955645
1274709,1886597,1956574
1274204,1886951,1956374
1273999,1886521,1956412
1273999,1885816,1956036
1273616,1885679,1957427
1273561,1885674,1957369
1273590,1886499,1958659
1273338,1885188,1958253
1273363,1884441,1958686
1273287,1884525,1957788
1273389,1884302,1959531
1273561,1884615,1960021
1273696,1884402,1959025
1273806,1883961,1959288
1273943,1883884,1958945
1274165,1884326,1959466
1274314,1885509,1959847
1274567,1887136,1958847
1275071,1887924,1959103
1275256,1889376,1957280
1275536,1890829,1955039
1275718,1892372,1954240
1276052,1893726,1952285
1276306,1895103,1950719
1276525,1896330,1950832
1276557,1897380,1948208
1276557,1898147,1949350
1276988,1898088,1949073
1277369,1898010,1947863
1277481,1898073,1948514
1277812,1897721,1947835
1278124,1897901,1948065
1278828,1899319,1950238
1278982,1899677,1949539
1279430,1899523,1950358
1279829,1899570,1949933
1279972,1898905,1950572
1280185,1898582,1952319
1280394,1898619,1951596
1280720,1898588,1952217
1281037,1898685,1952158
1281351,1899144,1952720
1281633,1899036,1953401
1281770,1899320,1954074
1281762,1899526,1955249
1281313,1900002,1954796
1282003,1900470,1954589
1282244,1899931,1954582
1282244,1898708,1953755
1282320,1897600,1952988
1281509,1896363,1953057
1282469,1895292,1953632
1281937,1893842,1953340
1281555,1891932,1952600
1280456,1889755,1951915
1277380,1885997,1953265
1275544,1884320,1953103
1274792,1882977,1953925
1273942,1882039,1954068
1273192,1880312,1953601
1272551,1879619,1953889
1271957,1879356,1954657
1271522,1879090,1953939
1271689,1879267,1955364
1271464,1879190,1955336
1271325,1880177,1956052
1271281,1880122,1956288
1271160,1880882,1956395
1272403,1881415,1958192
1271532,1882108,1957550
1271084,1882796,1957841
1271084,1883183,1958630
1270940,1883756,1960117
1271235,1884008,1961415
1271616,1884728,1962168
1271706,1884642,1960893
1271937,1884273,1960381
1272335,1884302,1961672
1272520,1885273,1961188
1272602,1885825,1961714
1272813,1886200,1961795
1272872,1886353,1962277
1272604,1886085,1962321
1272519,1885838,1962743
1272409,1885502,1962934
1272571,1884977,1961755
1272283,1884723,1963586
1271958,1884471,1964774
1272171,1884735,1963793
1271829,1885220,1965516
1271852,1886322,1964753
1271863,1887843,1964811
1271770,1888530,1964550
1271770,1888325,1964552
1271772,1887989,1965982
1271912,1887062,1965821
1272099,1886924,1965887
1272288,1886867,1965359
1272486,1886515,1965807
1272922,1888567,1964007
1273105,1890188,1964057
1273335,1891212,1963441
1273727,1891801,1961090
1273822,1891606,1959369
1274133,1890760,1958647
1274161,1890035,1956476
1274524,1890207,1954088
1274703,1890065,1952083
1275139,1890305,1951702
1275382,1890684,1950632
1275687,1890902,1949828
1275873,1891670,1953304
1276226,1892149,1953251
1276412,1892275,1953802
1276622,1892430,1953710
1276377,1892973,1952405
1276377,1893024,1953943
1276992,1892968,1953814
1277199,1893572,1955415
1277313,1894484,1954896
1277708,1894900,1955119
1277963,1895485,1955796
1278839,1896709,1955880
1279059,1897598,1955978
1279354,1898137,1956781
1279479,1899022,1956677
1279771,1899853,1957485
1279712,1900603,1957523
1279681,1900001,1957470
1279839,1898702,1955961
1280094,1896772,1956468
1279597,1894616,1956012
1278771,1892294,1957052
1277678,1890190,1955592
1276743,1888564,1956466
1275557,1887195,1956384
1274121,1885911,1956196
1272981,1885096,1955157
1272981,1883932,1955790
1271870,1882734,1956431
1271304,1882355,1956814
1270617,1881388,1964180
1270119,1880475,1957513
1269689,1879803,1956670
1268746,1879804,1957706
1268911,1880838,1958874
1268955,1881229,1957249
1268939,1882209,1958315
1268977,1882584,1957407
1268954,1882959,1958850
1269009,1884020,1958982
1269243,1885000,1958955
1269637,1886075,1960676
1270121,1887459,1959745
1270573,1888976,1959123
1270684,1889993,1961385
1271029,1890880,1961064
1271347,1891801,1960946
1271833,1892615,1962306
1271672,1892935,1961689
1271485,1892876,1962857
1271485,1892468,1961393
1271534,1892014,1962729
1271565,1891267,1962440
1271338,1890602,1963212
1271279,1889797,1963007
1270968,1889701,1963515
1270949,1891061,1963194
1270729,1892603,1964002
1270703,1892884,1964290
1270760,1893103,1964095
1270834,1893224,1964201
1270845,1892989,1964296
1270761,1893330,1964949
1270925,1893472,1964219
1271359,1893086,1965224
1271497,1892455,1965142
1271746,1892506,1967238
1271891,1892658,1965569
1272114,1893146,1964911
1272485,1893383,1963381
1272685,1894306,1963236
1273000,1895005,1962251
1273000,1895938,1960959
1273152,1897064,1958723
1273352,1898335,1957431
1273540,1898842,1954835
1273973,1899611,1953191
1274149,1899829,1952011
1275124,1900537,1953218
1275377,1901287,1951251
1275619,1901625,1952399
1276104,1901911,1951787
1276110,1902499,1951773
1276290,1902339,1950932
1276539,1902557,1951503
1277230,1903301,1952610
1277414,1904128,1952818
1277949,1904118,1953507
1277958,1903856,1954578
1278221,1903071,1955813
1278509,1902842,1954448
1278615,1902925,1954802
1277690,1902904,1956684
1278221,1902960,1956196
1277502,1902755,1956365
1276832,1901804,1956688
1276832,1900101,1957071
1276130,1897833,1956921
1275087,1895750,1956067
1273676,1893069,1956698
1272304,1890941,1956968
1268723,1888306,1958798
1268083,1887122,1958070
1266724,1885190,1956972
1266735,1883977,1956072
1266224,1882244,1956848
1265922,1880750,1955593
1265633,1880146,1955796
1265308,1879685,1956363
1265394,1879345,1957151
1265458,1879048,1955679
1265605,1878506,1955282
1265588,1877358,1955657
1265438,1877134,1957911
1265537,1877099,1956993
1266874,1877160,1957034
1265765,1877901,1958963
1265643,1878538,1958661
1265643,1878628,1959497
1265894,1878758,1958461
1266017,1879164,1959440
1266074,1878928,1959958
1266117,1878543,1960040
1266225,1878576,1959394
1266098,1879571,1960831
1266001,1879903,1960390
1266102,1880254,1960881
1265754,1880480,1961670
1265581,1880053,1963607
1265341,1880302,1963486
1265192,1881261,1963439
1265148,1882410,1964209
1265390,1883735,1963714
1265382,1884633,1965245
1265462,1885463,1964749
1265664,1885546,1964790
1265617,1886102,1966185
1266052,1886328,1966183
1266043,1887237,1965509
1266000,1887522,1965848
1266000,1887283,1967723
1266480,1888364,1967037
1266582,1889560,1967297
1266609,1890869,1968093
1267123,1891005,1969367
1267431,1890453,1968703
1267584,1890785,1968665
1268542,1891703,1968097
1268825,1892229,1967823
1268889,1892498,1967600
1269007,1892559,1967484
1269381,1892540,1965265
1269371,1892795,1964047
1269853,1893443,1962695
1270200,1893678,1960109
1270669,1893829,1960247
1271144,1894016,1958157
1271052,1894264,1956738
1271379,1895360,1956432
1271806,1895759,1955809
1272071,1895865,1955209
1272266,1896482,1956909
1272266,1897063,1956215
1272351,1897752,1956699
1272413,1898299,1955537
1272952,1899748,1957343
1273193,1901430,1957900
1273604,1901793,1958201
1273943,1902470,1959124
1274156,1903927,1958280
1273967,1903556,1959158
1273397,1902391,1958781
1272612,1900738,1960344
1271529,1898920,1960188
1270405,1897310,1961233
1269322,1896469,1962645
1268572,1895690,1962466
1267917,1895829,1962931
1267459,1896177,1962826
1266843,1896721,1961982
1266546,1896952,1964105
1266316,1897484,1963375
1266292,1898331,1962750
1266071,1899200,1962652
1265934,1900032,1962075
1265934,1899801,1962299
1265761,1899798,1963590
1266075,1900171,1963433
1266157,1899943,1963155
1266082,1899258,1964557
1266347,1898768,1964571
1265508,1899390,1963459
1265830,1900787,1963903
1265831,1902144,1963761
1266166,1903506,1964617
1266469,1904626,1964170
1266514,1905031,1965162
1266556,1906133,1966387
1266996,1906772,1966354
1267158,1907244,1965926
1267156,1907647,1968010
1267554,1906747,1966683
1267281,1907878,1967318
1267099,1908018,1967105
1267102,1908206,1965271
1267119,1908432,1967414
1266826,1908733,1968234
1266826,1908827,1969119
1266810,1908906,1968784
1267000,1909447,1968848
1267029,1909873,1968152
1267067,1909932,1968361
1267180,1909558,1969245
1267363,1909696,1970026
1268061,1910615,1968178
1268151,1911368,1968923
1268290,1912845,1969029
1268358,1913481,1969330
1268891,1914101,1969715
1268953,1914537,1969749
1269242,1915022,1972467
1269740,1914970,1970927
1270255,1915270,1971865
1270334,1915403,1972055
1270612,1915356,1972059
1270833,1915649,1973734
1271105,1916397,1972773
1271574,1917288,1973344
1271669,1918026,1973663
1271669,1918261,1973129
1271669,1919087,1971936
1272193,1919285,1972944
1272287,1919846,1971005
1272727,1920750,1971019
1272924,1921207,1967548
1273274,1921801,1966580
1274141,1922467,1965465
1274561,1923379,1963543
1274878,1923764,1963043
1274970,1924202,1962668
1275158,1924574,1962263
1275389,1925269,1962434
1275680,1926681,1962382
1275830,1927857,1962342
1276497,1928953,1962897
1276774,1930005,1963641
1276898,1930831,1962952
1277468,1930969,1964009
1277679,1931413,1964010
1277947,1931520,1964056
1277947,1931573,1964377
1277748,1931410,1965408
1277748,1930367,1967048
1277453,1929554,1972375
1277008,1927762,1968177
1276313,1926511,1967754
1275559,1925093,1967029
1274651,1923703,1967505
1272396,1923549,1966062
1271864,1924089,1967384
1271477,1924806,1965790
1270992,1925324,1966919
1270951,1925579,1966646
1270748,1925193,1965352
1270372,1925234,1964437
1270577,1924843,1963328
1270473,1924158,1963966
1270622,1923465,1964416
1270817,1923193,1964977
1270527,1922606,1965007
1270974,1922526,1966445
1271072,1922732,1964989
1271228,1923219,1964190
1271450,1923779,1965309
1271172,1923783,1964703
1271172,1923453,1964338
1271272,1922929,1965337
1271599,1922130,1964642
1271602,1921875,1965809
1271806,1921181,1965674
1272024,1920811,1965455
1271522,1920645,1964883
1271685,1918499,1966023
1271739,1917527,1966531
1271445,1917026,1966167
1271411,1916875,1965641
1270972,1916694,1966297
1271025,1917505,1966258
1270965,1917986,1964879
1271049,1918316,1967039
1271170,1919250,1966532
1271390,1919963,1966996
1271337,1920354,1965926
1271675,1921385,1966288
1271719,1922100,1967006
1272000,1923241,1966965
1271883,1923846,1967172
1271878,1924455,1967478
1271878,1925381,1967186
1272125,1926842,1968119
1272268,1928128,1967520
1272703,1929766,1968410
1272965,1929883,1966913
1273191,1930106,1967854
1273707,1930579,1966517
1274054,1931237,1968248
1274368,1931720,1967674
1274528,1931864,1966913
1274814,1932229,1965480
1274932,1932111,1964785
1274835,1932423,1963332
1275116,1932355,1962182
1275886,1932637,1961769
1276111,1932198,1960811
1276260,1932220,1960362
1276508,1931673,1958199
1276745,1931836,1958335
1276955,1931878,1957684
1277278,1932200,1958522
1277171,1932389,1958305
1277171,1932092,1958298
1277305,1931945,1956725
1277418,1932169,1957641
1277691,1932641,1957978
1277989,1932533,1959484
1278339,1932222,1959318
1278782,1931645,1959652
1278886,1931605,1960364
1279198,1931555,1960652
1279064,1931486,1960965
1279091,1931237,1961263
1278665,1930009,1962445
1277910,1929373,1962484
1277636,1928553,1963011
1276708,1927126,1961867
1276141,1925479,1962037
1275268,1924241,1961857
1274463,1922898,1962651
1273316,1922631,1961385
1272955,1922726,1962897
1272468,1923172,1962396
1272083,1924267,1962109
1271668,1924620,1962785
1271668,1925026,1961570
1271415,1925349,1961915
1271284,1926058,1961745
1271438,1926192,1962184
1271232,1925569,1961349
1271328,1924467,1961831
1271379,1925170,1961758
1271415,1924790,1963069
1271530,1925019,1962751
1271709,1925622,1962877
1271751,1925886,1963177
1271704,1925292,1963410
1271620,1925364,1964922
1271990,1925309,1964543
1272203,1925318,1963625
1272341,1924733,1964698
1272282,1924774,1965011
1272400,1924633,1965278
1272043,1924986,1965217
1272181,1925004,1966085
1272050,1925278,1967378
1271777,1925113,1966140
1271777,1924893,1966219
1271679,1924062,1966685
1271420,1923367,1968210
1271146,1923529,1968858
1271334,1923510,1967264
1271343,1922855,1968928
1271228,1923368,1969488
1271377,1924550,1969036
1271536,1925253,1969424
1271688,1925804,1970608
1271785,1926033,1970228
1272020,1925611,1968955
1272103,1925547,1966767
1272387,1925944,1965460
1272533,1926285,1964631
1272938,1926527,1963219
1273109,1926729,1962052
1273319,1927013,1961000
1273462,1927573,1960216
1273780,1928481,1958362
1273981,1928970,1957741
1274095,1930110,1957498
1274206,1931203,1957207
1274206,1932175,1957270
1274388,1932504,1957270
1274775,1933136,1958389
1275164,1933391,1957897
1275259,1932376,1957776
1275496,1931861,1958190
1276342,1931942,1959135
1276417,1932627,1960505
1276441,1932782,1961927
1276792,1933199,1959815
1276880,1933843,1960816
1277034,1933881,1960470
1277263,1934465,1962862
1277550,1934856,1962839
1278039,1935530,1963217
1278413,1935795,1961884
1278390,1936255,1963536
1278763,1936608,1963570
1278897,1937056,1963781
1279430,1937412,1963851
1279368,1937685,1962730
1279191,1937120,1963957
1278995,1936235,1962741
1278995,1934935,1962440
1278830,1933141,1961881
1278471,1931990,1962758
1277599,1930592,1962533
1276874,1929779,1962981
1275096,1928558,1962071
1274846,1928457,1962699
1274737,1928961,1964154
1274382,1929533,1963800
1274376,1929695,1963145
1273963,1928986,1962975
1273981,1929000,1963881
1274077,1929181,1964293
1274238,1929816,1964186
1274355,1930222,1964579
1274291,1930242,1965843
1274312,1929941,1966454
1274442,1929935,1966097
1274620,1930012,1966897
1274741,1930443,1966865
1274896,1930800,1967047
1274734,1931034,1969375
1274734,1930972,1968420
1274963,1931262,1968856
1275131,1931353,1968722
1275164,1931955,1969094
1275342,1932129,1968842
1275481,1932126,1970126
1275700,1932337,1969729
1275478,1933050,1969922
1275776,1933124,1970309
1275688,1932999,1971631
1275618,1932765,1971644
1275630,1932032,1970646
1275648,1931210,1970141
1275852,1930907,1969487
1276004,1930594,1967069
1276070,1930621,1966674
1276335,1930821,1966068
1276537,1931055,1963808
1276678,1931452,1961526
1276718,1932443,1962249
1276991,1933295,1962546
1276801,1933731,1960869
1277130,1933908,1958840
1277130,1934569,1959269
1277251,1934653,1959540
1277698,1934788,1960588
1277841,1934980,1959591
1277931,1934853,1959329
1278161,1934629,1960285
1278818,1935043,1961468
1279230,1935710,1961741
1279348,1935845,1961952
1279622,1935960,1962598
1280047,1935985,1965020
1280050,1935921,1965618
1280211,1936527,1966477
1280501,1936579,1966041
1280752,1936963,1967052
1281219,1936823,1965608
1281597,1936705,1966754
1281777,1936483,1967409
1282050,1936197,1967436
1282215,1936525,1968307
1282376,1936837,1967983
1282370,1937195,1966601
1282438,1937222,1967154
1282438,1937868,1967796
1282861,1937754,1968288
1283212,1938219,1968489
1283391,1938289,1966901
1283690,1938268,1967659
1283572,1938805,1968014
1284468,1940269,1969798
1284762,1940770,1969447
1284994,1940456,1968956
1285167,1940706,2009721
1285597,1940651,1976989
1285409,1940054,1971783
1285344,1938719,1971003
1285461,1937140,1969464
1285418,1935693,1970858
1285104,1934293,1971996
1284567,1932919,1972060
1284139,1931908,1972167
1283893,1931280,1977792
1283452,1930963,1973431
1282976,1931521,1972754
1282566,1931677,1971892
1282566,1932009,1973435
1282436,1932193,1972067
1282119,1932761,1973496
1282286,1933392,1972195
1282249,1933264,1973589
1282268,1933085,1974012
1282601,1933095,1974288
1282405,1933516,1974121
1282537,1933190,1975158
1282943,1933421,1975140
1283081,1933188,1979412
1282989,1932745,1981638
1283043,1932474,1975176
1283484,1932493,1974583
1283546,1932348,1974560
1283922,1932776,1974738
1283943,1931942,1973880
1284121,1930724,1975258
1284074,1930005,1972975
1283998,1928989,1973130
1284108,1928130,1971343
1284272,1927558,1969492
1284098,1927246,1968266
1284098,1926458,1968119
1283929,1925733,1968446
1283958,1925207,1967412
1284086,1924556,1966789
1284013,1924217,1965813
1283848,1923835,1967171
1284111,1923940,1967392
1284348,1923827,1966864
1284008,1923810,1968051
1284420,1924371,1966721
1284735,1924509,1967001
1284536,1924405,1968110
1284877,1925460,1967315
1285166,1926299,1969097
1285058,1926929,1968480
1285299,1927416,1968627
1285460,1927542,1969211
1285849,1927897,1970145
1285970,1927878,1970733
1286028,1928663,1970091
1286399,1929124,1970208
1286583,1929898,1970430
1286583,1929982,1968728
1286815,1930913,1971271
1286749,1930829,1970112
1287057,1931276,1969554
1287355,1931355,1969924
1287472,1930851,1968952
1287695,1931238,1969924
1288099,1931765,1969702
1288387,1931942,1969292
1288550,1931412,1970661
1288973,1931268,1970401
1289007,1931042,1972246
1288960,1931042,1970379
1289172,1931804,1971082
1289518,1931544,1972089
1289800,1931507,1972207
1290126,1931316,1977236
1290266,1931271,1972137
1290484,1931287,1973134
1290587,1931255,1973605
1290716,1930334,1971883
1290726,1929657,1973197
1290619,1928930,1973466
1290619,1927893,1973588
1290720,1926461,1978279
1290758,1926261,1974050
1290664,1925734,1975213
1290656,1924767,1974484
1290361,1923950,1974504
1288961,1922956,1976500
1288638,1922941,1974926
1288250,1923080,1976356
1288056,1922818,1975553
1287918,1922554,1976017
1287800,1922069,2017856
1287505,1922251,2029064
1287576,1922865,1988436
1287627,1922168,1978712
1288016,1922074,1977458
1287867,1921587,2018961
1288063,1921036,1987290
1287930,1920816,1979699
1288102,1920678,1978107
1288299,1920565,2019747
1288163,1920432,1991963
1288118,1920415,1979797
1288118,1920764,1976221
1288482,1920756,1978865
1288494,1921200,1974076
1288732,1921638,1973002
1288792,1921770,1971343
1288944,1921691,1970959
1289044,1921659,1970866
1289141,1921532,1969229
1289044,1921555,1970113
1289233,1921668,1970943
1289167,1921524,1969768
1289029,1921440,1971010
1289024,1921701,1970653
1289092,1922340,1970576
1289022,1922740,1970474
1289370,1923261,1970404
1289451,1923213,1972078
1289548,1923260,1972086
1289663,1923606,1973552
1289681,1924182,1973321
1289852,1924180,2014997
1289915,1924435,1984933
1289694,1924204,2020629
1289694,1924685,1986366
1289975,1924769,1977867
1290288,1925487,1977008
1290332,1925523,2018525
1290559,1925713,1986606
1290628,1926464,1979158
1291173,1927987,1975860
1291599,1928446,1980901
1291666,1928347,1977273
1291995,1928772,1980843
1292140,1928985,1977718
1292259,1929100,1975928
1292474,1929961,1976269
1292590,1930459,1975122
1292920,1930930,1976538
1293190,1931487,2017830
1293399,1931977,1986397
1293694,1932689,1979827
1293618,1933028,1982993
1294056,1933395,2021991
1294190,1933719,1995212
1294248,1933674,1982545
1294156,1933522,1978811
1294156,1933690,1978599
1294441,1933585,1978301
1294717,1933749,1984769
1294851,1933198,1985566
1294649,1932355,1985129
1294373,1931548,1986777
1293866,1930015,1987162
1293541,1929638,1986447
1293094,1929199,1981786
1293159,1929565,2022780
1292907,1929659,1991103
1292622,1929203,1983598
1292444,1929381,2024932
1292594,1929975,1996417
1292887,1930973,2028299
1292899,1931869,1997329
1292948,1932855,1990410
1292935,1933712,1984541
1293206,1933614,1988003
1293437,1934426,1988379
1293402,1934790,1987913
1293309,1935370,2025962
1293309,1935144,1990997
1293273,1935204,1985820
1293399,1934942,1981009
1293655,1935045,1978974
1293718,1935789,1976863
1293865,1936122,1991467
1294437,1938201,1982289
1294629,1939794,1977309
1294742,1940736,1975320
1295000,1941485,1975361
1295186,1942241,1981127
1295110,1942241,1977472
1294981,1942604,1981777
1295277,1942966,1978183
1295109,1943319,1977746
1295434,1943540,1977793
1295588,1943754,2018815
1295394,1943655,2030350
1295726,1944026,1991367
1295653,1944350,1986667
1296008,1944404,1985896
1296112,1945363,1986520
1295917,1945217,2025049
1295917,1945508,2034146
1295893,1945028,1998538
1296305,1945372,2027418
1296501,1945833,1997190
1296724,1945742,1989709
1296924,1945697,2022978
1297176,1946652,2032303
1297455,1947297,2035944
1297747,1947779,1993857
1297888,1948157,1989351
1298069,1948111,1982425
1298132,1948190,2023924
1298318,1948653,2034089
1298527,1948910,1992892
1298918,1949265,1983526
1299229,1949805,1981359
1299337,1950968,1987119
1299596,1951065,1988023
1299557,1952703,2024622
1299774,1952749,1991489
1300068,1953120,1988079
1300265,1953060,1988359
1300165,1953330,1984626
1300165,1952884,1988208
1300161,1952677,2027012
1300355,1952948,1997207
1300442,1953144,1989586
1300572,1953347,2028523
1300641,1953905,1998884
1301241,1955727,1992172
1301365,1955427,1989903
1301383,1955260,2028403
1301498,1954463,2038043
1301384,1952968,2001443
1301194,1951238,1992504
1301000,1950247,1990157
1300715,1949744,2027117
1300694,1949897,2036742
1300462,1949346,2038832
1299927,1948828,2001336
1299473,1948083,2031042
1299391,1947433,1999251
1299218,1947190,1992861
1299139,1947090,1991298
1298952,1947570,1992724
1298952,1947544,1992312
1298875,1947899,1990886
1298730,1948237,1989993
1298938,1948721,1987144
1298993,1948715,1990303
1298967,1948292,1991815
1299055,1949068,1989978
1299159,1949382,2030559
1299190,1949603,1999822
1299412,1950133,1986631
1299493,1950972,1983352
1299549,1950920,1981524
1299546,1951654,1978540
1299602,1952059,1978201
1299598,1952538,1977351
1300145,1953624,1976824
1300381,1954531,2019093
1300199,1954999,1987252
1300407,1955160,1980825
1300370,1954761,1979021
1300545,1954666,1977283
1300305,1954939,2019420
1299965,1954908,1989063
1299965,1954744,1981605
1299979,1954361,1979662
1300029,1954236,1980256
1300284,1954181,1978642
1300314,1954368,2021110
1300209,1954172,1988918
1300399,1954451,1985419
1300693,1954280,1986721
1300823,1954375,2023101
1301076,1954551,1994711
1301269,1954828,1988242
1301216,1954585,1987085
1301320,1954389,2024032
1301402,1954733,1990922
1301574,1954913,1982925
1301755,1954966,1981969
1302090,1955435,1985327
1302140,1955650,1983192
1302440,1956225,1979346
1302585,1956185,1979323
1302777,1956255,1978602
1302935,1956701,1979657
1302841,1956830,1979176
1302841,1956994,1984614
1302939,1957163,1980024
1303168,1957440,1985772
1303410,1958197,1980519
1303697,1958155,1980320
1303709,1957512,1987731
1303833,1957571,2025133
1304280,1957808,1990530
1304512,1958431,1988007
1304564,1958454,1982527
1304882,1959075,1985753
1305070,1958945,1983670
1305058,1959009,1986963
1305099,1959222,1988529
1305402,1959470,1982744
1305635,1959721,2024397
1305876,1959911,1992260
1306062,1960099,1990012
1306336,1960268,1985405
1306445,1960614,1988484
1306611,1961387,1990025
1306588,1962351,1985923
1306648,1962708,1984477
1306648,1962750,1988323
1306829,1962991,1988612
1306987,1962720,1991045
1307193,1962691,1990955
1307388,1962675,1992671
1307651,1962028,1991483
1307595,1961329,1990002
1307053,1959691,1990859
1307003,1958881,2028923
1306706,1958635,1999071
1306311,1957756,1993691
1306002,1957546,2029683
1305503,1956849,2000465
1304822,1957410,1988825
1305186,1957326,1992913
1304953,1957619,1992766
1304830,1957925,2031320
1304632,1958217,2002856
1304745,1958363,1994086
1304738,1958707,1993353
1304748,1959171,1992340
1304746,1959160,1992801
1304713,1959725,1991214
1304713,1959724,1989324
1304423,1960157,1984626
1304396,1960124,1987009
1304638,1960774,1982092
1304512,1961187,2032906
1304446,1961678,1990691
1304567,1962008,2024490
1304811,1963313,1990102
1304925,1964042,1982314
1304861,1963900,1979729
1305113,1963614,1984798
1305184,1963663,1979813
1305078,1963547,1984552
1304914,1963922,1982280
1304918,1963772,1981021
1304952,1964044,1984968
1305034,1964267,1988325
1305008,1964444,1982536
1304979,1964597,2023145
1304801,1965376,1991910
1305243,1965761,1985758
1305079,1966616,1982381
1305035,1966853,1986448
1305035,1967660,1988567
1304870,1968528,1982335
1305064,1968695,1982135
1305023,1969185,1986304
1305129,1969212,1987382
1305134,1968953,1988709
1305337,1969322,1982599
1305688,1969114,1986668
1305799,1969477,1987872
1305942,1969503,1987850
1306047,1969736,2026892
1306095,1969647,1996784
1306185,1970114,1989226
1306343,1970611,2025240
1306530,1970961,1996776
1306900,1971196,1984537
1306881,1970861,2024158
1307110,1970981,1991548
1307302,1970765,2026267
1307320,1970897,1998186
1307352,1971119,1990611
1307252,1971759,1983621
1307490,1971712,1985946
1307490,1971616,1987062
1307551,1971808,1982014
1307786,1971866,1981916
1307937,1972184,2024628
1308069,1972416,1990652
1308240,1972401,1988897
1308694,1972505,1989699
1308564,1972923,2026004
1309043,1972414,2036308
1309203,1972436,2000714
1309250,1972301,2029614
1309284,1971751,1998201
1309428,1971845,1990362
1309335,1972025,1989473
1309691,1971762,2029013
1310281,1972119,1998938
1310251,1972308,1992930
1310424,1972573,1986001
1310567,1972444,1989647
1310315,1972651,2028107
1310714,1972807,2001762
1310871,1973152,1990060
1310613,1973189,1990191
1310613,1973312,1985395
1310956,1973231,1991761
1310932,1972568,1990973
1311085,1971751,1991268
1311089,1970377,1990662
1310572,1969078,1985871
1309517,1967346,1988554
1308890,1967194,2027230
1308330,1966688,1997740
1308177,1966534,2027138
1307901,1966474,1995367
1307375,1965677,1983829
1307136,1966937,1980047
1306986,1966556,1983628
1307479,1966640,1980089
1307066,1967232,1984064
1307120,1968419,1978440
1307191,1968156,2020679
1307235,1968487,2030074
1307067,1968211,1995861
1307114,1968881,1988154
1306805,1968307,2023356
1306861,1967973,1994047
1306861,1968036,2025588
1306844,1967846,1991478
1306818,1967909,2022268
1306949,1968484,1998787
1307080,1968557,1998787
1307101,1968800,1984601
1307399,1969378,1983014
1307110,1969520,1985987
1307093,1969191,1982827
1307185,1969103,2024681
1306974,1968613,1996308
1306797,1967830,1990706
1306710,1968042,1983680
1306586,1968003,1986337
1306879,1968060,1987917
1306709,1968591,1988733
1306834,1969125,1987538
1306724,1969524,1988484
1306664,1970043,1987393
1306774,1970968,2026355
1306795,1972193,2037170
1306615,1973298,2000514
1306615,1973673,1990323
1306616,1974141,2026981
1306616,1974510,1997664
1306795,1974709,1991497
1306855,1974807,1991206
1306979,1974485,1991630
1307013,1974578,1990082
1307167,1975372,1993276
1307451,1975848,1992076
1307607,1975161,1993483
1307738,1975331,1988532
1307926,1975309,1992300
1307774,1975509,1991820
1307997,1975952,1992657
1307523,1976264,1992837
1308230,1976669,1993048
1308739,1977066,1993033
1308668,1976882,1993579
1308846,1976886,1994103
1309086,1977136,1996511
1309165,1977608,1995086
1309320,1978260,1996182
1309028,1978493,1996813
1309028,1978427,1995393
1309139,1978352,1995969
1309252,1977960,1995651
1309322,1977761,1996036
1309691,1978266,1995510
1309861,1977857,1996263
1309729,1978212,1994626
1310198,1978141,1994501
1310208,1978677,2030946
1310443,1978248,2000007
1310519,1978137,2030323
1310649,1977867,1999904
1310548,1977393,1989186
1310552,1976902,1988207
1310803,1976628,1981726
1310900,1976026,2025969
1310695,1974736,1990836
1310420,1973437,2025200
1310136,1971982,1996680
1309316,1970670,1985116
1308881,1969683,1986333
1308276,1968504,2024273
1307373,1967479,1990509
1307373,1966428,1982336
1307123,1965981,1981420
1306634,1964372,1981880
1306305,1964325,1984890
1306065,1963289,2025944
1305598,1962889,2036023
1304985,1961762,1994786
1304743,1962198,1990455
1304771,1961909,1983529
1304479,1961670,2026298
1304556,1960956,1998894
1304674,1960533,1991453
1304501,1960355,2027586
1304517,1960611,2036665
1304536,1960812,1999856
1304877,1960768,1991934
1304940,1960600,1988877
1304652,1960282,1988592
1304789,1959869,2025984
1304697,1959819,2036180
1304732,1959158,2000891
1304508,1958877,1990650
1304499,1958550,1982856
1304499,1957761,1989599
1304344,1957133,2025490
1304271,1957181,1984735
1304038,1956650,1987578
1303981,1956075,1990665
1303773,1955718,1989938
1303296,1955112,1990013
1303165,1955358,2028850
1303021,1954704,2000051
1303050,1954745,1993307
1302793,1954687,1991570
1302888,1954378,1991517
1302841,1954309,1992409
1302746,1954441,2031487
1303037,1954068,2040694
1302968,1954547,2003758
1303085,1954587,1995806
1302973,1954492,1993741
1303138,1954693,1994126
1303196,1954906,1995718
1303301,1955223,1993833
1302945,1955543,1995201
1303127,1955534,1994095
1303127,1955560,1993024
1303368,1955326,1992940
1303230,1955021,1992029
1303478,1954850,1989677
1303526,1954326,1984181
1303419,1954895,1987068
1303931,1954901,1987605
1304057,1954827,2024132
1304068,1954875,1993372
1303973,1955176,1983524
1304070,1955049,1978649
1304145,1954665,1979891
1304203,1954898,1982937
1304260,1954887,1984798
1304844,1955019,1985321
1304754,1954894,1986236
1304850,1954295,1985750
1304909,1953624,1987096
1304879,1953021,1986869
1304665,1951971,2025207
1304380,1951271,1995985
1303675,1949947,1990042
1303675,1948564,1987681
1303173,1947302,1989569
1302474,1946325,1989301
1301881,1944967,1989043
1301193,1943849,1989252
1300539,1942705,1989063
1299041,1942620,1990467
1298812,1943122,1990984
1298459,1943202,1990976
1298331,1943642,1990455
1298130,1944212,1989608
1298250,1944306,2027932
1297832,1944844,1998881
1297995,1945494,1992402
1297948,1946153,1990498
1298129,1946539,1991419
1297924,1946141,2029085
1297872,1945992,1999396
1297908,1946133,1992412
1297952,1946531,1993012
1298259,1946644,1987983
1298152,1947128,1990234
1297840,1946938,1989969
1297840,1947095,1990438
1298043,1946869,1991539
1297903,1946255,1991188
1298104,1946312,1992295
1297957,1945966,1991322
1297986,1945523,1992222
1297381,1945351,1991979
1297246,1945137,1993386
1297135,1944931,1995027
1297076,1945358,1994722
1296794,1944926,1993739
1296771,1944879,1993600
1296701,1945108,1995479
1296671,1945690,1993280
1296955,1946142,1993915
1297075,1946477,1995357
1296805,1946493,1993654
1296805,1945924,1994947
1297150,1946016,1995043
1296914,1946051,1994172
1296623,1946094,1995485
1297000,1946826,1992478
1296979,1946824,1991932
1296979,1947192,1991850
1296980,1947787,1992750
1297291,1948440,1989841
1297438,1948499,1989853
1297523,1948640,2027322
1297489,1948560,1996451
1297898,1948663,1985262
1298210,1948984,1986973
1298225,1949353,1989018
1298269,1949860,1988858
1298499,1950613,1988730
1298453,1950274,1987925
1298502,1950712,1989749
1299218,1950722,1989026
1299301,1950995,1991037
1299473,1951069,1991378
1299157,1951194,1991543
1299366,1950662,1992756
1299095,1949915,1992827
1298691,1949128,1993285
1298186,1948804,1992820
1297533,1948373,1993630
1296450,1947595,1993729
1296450,1946897,1993045
1295790,1946095,1993244
1295121,1945115,1994679
1294667,1944277,1992784
1294032,1943003,1993295
1293412,1942553,1993078
1292670,1941915,1993473
1292519,1942559,1992684
1292333,1942705,1993851
1292467,1942979,1994142
1292369,1943206,1993872
1292309,1943198,1992722
1292150,1943435,1995299
1292372,1943631,1994438
1292472,1943761,1994762
1292648,1944020,1995844
1292562,1943901,1994708
1292631,1944336,1995369
1292615,1944704,1994991
1292844,1944724,1995642
1292779,1945164,1997148
1292807,1945456,1996441
1292807,1945353,2025860
1292725,1944955,2032646
1292750,1945276,2004349
1292750,1944140,2025895
1292805,1944505,2036466
1292508,1944478,2037891
1292302,1944774,2037253
1292007,1944849,2038200
1292231,1944749,2038416
1291556,1944620,2037541
1291791,1944387,2038954
1291869,1944355,2038991
1291808,1944454,2038969
1292056,1944778,2039392
1292109,1945110,2039118
1292211,1945723,2039356
1292296,1945936,2039986
1292591,1946033,2040004
1292516,1946166,2039013
1292564,1946851,2039108
1292929,1947497,2008585
1293579,1948023,2029960
1293579,1948172,2002891
1293142,1948863,1998659
1293104,1949189,2026984
1293305,1950492,2002584
1293247,1950564,1994019
1293686,1950712,2022386
1293642,1951294,2001050
1294268,1951814,1996210
1294472,1951885,1993810
1294395,1951690,1995438
1294420,1951702,1996290
1294815,1952364,1996087
1295030,1952421,1995863
1295141,1953061,2025447
1295312,1952786,2002917
1295366,1951831,1998271
1295205,1950053,1997480
1294435,1947894,2027119
1294214,1945987,2004819
1293153,1944128,2027303
1292113,1942491,2035329
1291184,1941790,2040219
1290063,1941009,2008905
1290063,1940688,2031581
1289394,1940848,2007384
1288725,1940375,2031675
1288138,1941070,2036828
1287815,1941607,2038048
1287497,1942084,2038432
1286892,1943343,2038331
1286799,1944021,2038770
1286771,1943763,2038236
1286680,1944506,2039159
1286613,1944523,2008557
1286436,1944635,2031432
1286377,1944812,2036854
1286278,1945556,2039202
1286564,1945640,2039422
1286889,1946564,2040242
1287143,1947074,2039663
1286971,1947498,2040580
1286954,1948207,2040498
1286946,1948969,2040582
1287307,1949485,2041351
1287299,1950080,2041573
1286975,1950596,2041071
1286975,1951040,2041144
1286915,1951486,2041119
1287027,1951655,2042481
1286955,1951899,2042358
1286950,1951818,2041937
1286814,1951879,2042122
1286667,1953198,2041859
1286688,1954085,2042495
1286670,1954326,2043658
1286873,1954808,2043622
1286924,1955524,2043795
1286927,1955280,2043892
1287022,1955855,2043904
1287347,1956277,2044633
1287515,1956710,2044204
1287742,1957377,2045713
1288087,1957736,2045676
1288297,1958081,2045188
1288551,1958937,2045241
1288702,1959580,2045478
1289073,1960314,2045779
1288856,1960823,2044868
1289030,1961103,2043896
1289030,1961697,2043731
1289457,1961765,2042105
1289588,1962026,2041262
1289817,1961827,2039717
1290174,1962125,2007542
1290467,1962429,2030397
1291227,1963516,2005274
1291140,1963743,2028622
1291375,1963813,2005409
1291829,1964425,1999326
1291768,1964823,1997490
1292130,1965316,1997015
1292499,1966142,1997298
1292813,1966359,1997321
1293134,1967024,2025357
1293462,1967277,2034834
1293484,1967922,2006777
1293779,1967921,2030404
1293850,1967307,2035745
1293534,1966716,2039165
1293258,1965632,2039757
1292169,1964055,2039873
1292169,1961903,2039219
1291296,1960009,2040616
1290349,1958897,2040405
1289475,1957428,2040955
1288532,1956310,2039868
1287658,1955359,2039501
1286970,1954823,2039669
1286359,1954910,2039631
1285385,1955455,2040943
1285397,1955545,2039652
1285228,1955712,2040135
1285116,1955486,2039546
1284846,1954850,2038684
1284642,1954607,2038648
1284653,1954244,2039715
1284703,1954654,2040552
1284735,1954801,2040078
1284735,1955124,2039761
1284877,1955506,2040091
1284965,1956337,2039766
1284988,1956851,2041076
1285171,1958514,2040456
1285148,1958810,2040789
1285148,1958981,2041489
1285005,1959512,2041399
1285167,1959598,2041088
1285294,1959682,2041685
1285242,1959832,2042248
1285136,1959315,2042787
1284900,1959682,2043020
1284661,1959948,2042964
1284499,1960297,2042831
1284579,1960345,2042992
1284424,1960761,2043797
1284482,1960948,2043746
1284350,1961044,2044577
1284692,1961968,2044281
1284724,1962672,2044181
1285141,1963482,2046536
1285386,1964246,2045872
1285268,1964799,2046295
1285342,1965201,2046647
1285830,1965724,2046043
1286109,1966118,2046119
1286132,1966860,2046081
1286121,1968182,2046129
1286121,1968177,2047000
1286425,1968445,2046591
1286911,1969114,2046395
1286983,1969926,2047307
1287023,1970271,2045799
1287393,1970331,2045413
1288388,1971453,2044960
1288424,1972084,2044539
1288729,1972568,2043129
1289200,1973414,2041105
1289272,1973710,2040192
1289643,1973653,2038536
1289719,1973743,2038242
1290293,1973991,2037438
1290547,1973934,2036290
1290706,1973899,2007895
1290790,1973950,2000256
1291419,1974379,1997010
1291501,1974217,1999056
1291842,1974760,1998506
1292207,1975336,1999054
1292233,1976254,2027266
1292291,1977185,2034458
1292521,1977780,2036849
1292521,1978063,2037151
1292807,1978502,2030365
1293242,1978911,2035665
1293376,1978909,2037362
1293709,1979147,2038632
1293862,1979677,2038678
1294779,1980314,2038650
1295050,1980935,2038777
1295386,1981267,2039656
1295333,1981032,2039095
1295176,1979639,2039352
1294705,1978342,2038621
1294335,1976746,2038398
1293592,1974679,2039698
1293037,1973137,2039094
1291090,1971002,2038925
1290966,1969246,2040420
1290240,1967940,2038294
1289657,1966644,2038862
1288839,1966079,2038610
1288150,1965597,2037270
1287644,1964983,2038641
1287644,1964608,2037199
1287610,1964409,2037917
1287433,1964341,2039373
1287261,1964384,2039179
1287256,1964239,2038705
1287168,1963676,2039373
1287164,1964284,2039466
1287244,1964595,2037851
1287274,1964503,2039205
1287392,1965213,2039672
1287482,1965333,2039519
1287404,1964910,2039520
1287364,1965199,2039721
1287884,1965259,2040809
1287853,1965292,2040657
1288229,1965073,2041259
1288446,1964993,2040843
1288121,1964591,2040699
1288155,1964213,2040541
1288149,1963974,2042407
1288155,1963685,2041079
1287732,1963027,2040194
1287732,1962333,2040863
1287337,1962250,2040984
1287346,1962077,2041198
1287297,1962478,2042164
1287231,1962376,2041656
1287075,1962198,2042084
1287151,1962261,2041408
1287342,1961851,2042679
1287334,1961881,2042800
1287224,1962040,2042183
1287532,1962107,2043379
1287605,1962791,2043707
1287777,1962499,2043640
1288652,1962829,2043103
1288164,1962922,2044709
1288512,1963331,2044599
1288692,1963750,2044357
1288582,1963679,2043023
1289055,1964454,2042484
1289174,1964186,2041979
1289365,1964446,2039946
1289621,1964969,2038471
1289569,1965219,2006641
1289613,1965160,1998976
1289613,1965369,1995259
1289952,1965585,1994533
1290442,1966011,1991538
1290524,1965621,1992041
1290734,1965292,1989816
1290668,1965560,1992315
1291426,1966370,1992193
1291738,1966550,1990878
1291888,1966839,1993228
1292097,1967297,1991310
1292263,1967274,1991799
1292235,1967035,1991445
1292518,1967449,1990829
1292813,1967642,1993699
1293403,1967743,1993074
1293392,1967924,1992103
1293673,1968512,1992138
1293654,1968894,1991933
1293857,1969088,1992860
1293927,1969392,1993180
1294198,1970050,1992308
1294262,1970258,2033682
1294262,1970265,2003327
1294442,1969928,2034964
1294452,1969090,1996224
1294247,1967956,2031645
1293981,1966544,2002407
1293548,1964725,1995510
1290941,1962123,1995053
1289746,1960979,1993526
1288850,1959478,1992502
1288269,1958445,1987277
1287326,1958336,1991828
1286972,1957130,1992247
1286307,1956976,1993024
1286131,1956838,1990142
1285854,1957115,1990563
1286168,1957495,1990643
1285847,1957889,1986680
1285681,1958135,1989890
1285688,1958856,1991286
1285905,1959177,1992060
1285844,1959110,2030324
1285788,1959557,1996031
1285571,1959750,1992850
1285571,1960165,1992536
1285698,1960508,2031231
1285820,1961188,2001628
1285813,1961839,1992118
1285961,1961771,1993710
1286295,1962130,1992892
1286609,1962176,1993418
1286626,1961927,1992676
1286401,1961442,1993862
1286432,1960968,1992863
1285831,1960815,1993402
1286058,1960697,1996357
1285574,1960988,1994321
1285616,1961082,1994219
1285608,1961374,1995216
1285506,1961210,1989063
1285440,1961090,1993107
1285292,1960796,1993995
1285453,1960739,1994865
1285581,1961456,1994661
1285559,1962153,1996013
1285254,1962563,1994567
1285254,1962001,1995734
1285408,1962412,1995996
1285747,1962264,2025163
1285842,1962751,2028056
1285961,1962441,2003373
1286205,1962454,1998500
1286599,1962930,1997633
1286834,1962655,1995340
1287117,1962722,1992828
1287235,1963045,1991477
1287407,1963195,1989051
1287516,1962917,1984901
1287741,1963085,2024346
1287954,1963163,1997455
1288296,1963496,2026952
1288605,1964381,1991925
1288714,1964805,1986844
1288787,1964908,1985586
1289008,1965373,1980772
1289049,1965680,2020777
1289476,1966171,2031140
1289429,1966514,2035266
1289523,1966667,2033960
1289523,1967173,1996506
1289770,1967325,1983732
1290120,1967455,1985912
1290078,1966908,1986733
1290061,1965091,2024784
1289949,1964403,1990155
1288347,1961666,1982509
1287336,1960467,1987345
1286414,1959444,1988867
1285434,1957978,1989509
1284485,1956839,1989141
1283647,1955819,1989175
1283240,1955414,1984366
1282537,1955318,1987796
1282443,1955198,1982484
1282158,1955545,1988457
1281984,1956091,1988272
1281761,1956344,1988498
1281648,1957442,1984301
1281693,1958097,1986298
1281764,1958922,2025093
1281582,1958977,2035229
1281582,1958877,1997985
1281645,1959231,1986802
1281771,1959577,1987955
1281831,1959863,1984079
1281994,1960096,1982592
1282262,1960573,1981894
1282800,1962176,1988727
1283004,1963045,1989249
1283355,1963474,1984237
1283362,1964007,1988123
1283174,1963702,1990121
1283369,1963438,1988456
1283122,1962663,1989535
1283073,1962520,2027534
1283106,1962176,2038533
1282968,1962328,2002567
1282794,1962103,1994341
1282642,1961983,1985866
1282650,1961884,1990159
1282847,1962380,1990212
1282713,1962616,1991732
1282754,1962807,1992403
1282583,1962765,1992111
1282583,1962572,1991822
1282437,1962919,1991988
1282657,1963226,1991079
1283085,1963487,1991957
1283117,1963453,1991403
1283321,1963640,1987982
1283815,1964139,1990747
1284096,1964361,1991995
1284461,1964539,1992880
1284727,1964630,1993456
1284738,1964771,1993486
1284948,1964502,1990154
1285018,1964903,1992725
1285579,1965225,1992116
1285942,1965315,1994651
1286115,1965792,1993523
1285574,1966218,1989251
1286273,1965969,1991941
1286592,1965958,1992519
1287002,1966253,1991463
1287270,1966919,1991524
1287411,1967122,1989833
1287403,1967571,1983144
1287403,1968222,1982344
1287817,1968500,1984753
1287766,1969359,1980442
1288275,1969824,1977845
1288508,1969850,1978150
1288626,1969775,1976985
1288048,1967504,2018187
1287407,1966798,1991734
1286644,1964627,2022395
1285590,1963175,2030242
1284358,1961251,1990805
1283141,1959169,2022037
1282072,1958035,1987937
1281320,1956908,2021809
1280848,1956015,1994002
1280228,1955569,1987393
1279533,1955274,1986219
1279379,1955126,1980167
1279065,1955399,1979644
1279025,1955876,1985637
1278856,1956328,1983030
1278542,1956618,1980825
1278542,1956415,1980772
1278479,1956476,1985355
1278397,1956381,1982036
1278598,1956306,1987310
1278772,1956440,1981351
1278564,1956445,1985642
1278848,1956998,1985485
1279072,1957752,1986794
1279310,1957517,1987317
1279557,1957436,1986719
1279527,1956910,1986750
1279434,1956110,1980676
1279634,1955462,1979310
1279341,1955461,1985342
1279341,1955496,1985750
1279609,1955476,1987544
1279338,1955069,1982214
1278931,1955161,1984735
1279226,1954939,1985642
1279055,1954876,2024996
1278688,1954878,2035494
1278481,1955221,1994393
1278308,1955324,2027330
1278308,1955170,2035866
1278439,1956262,1998140
1278435,1957345,1991525
1278600,1958469,1988529
1278826,1958292,2026924
1279127,1958661,1998536
1279403,1959616,1992332
1279622,1960024,1990009
1279878,1960444,1990382
1280220,1960611,1989684
1280635,1960961,1990226
1280587,1961110,1989243
1280806,1961563,1990660
1281043,1961970,1989828
1281555,1962951,1991043
1281911,1963175,1991538
1282210,1963802,1990593
1282383,1963893,1989924
1282520,1965482,1991927
1283253,1965222,2030140
1283381,1965929,2000442
1283399,1966801,1994171
1283399,1967294,1992811
1283527,1967774,1992136
1283894,1967598,1993156
1284200,1967374,1992970
1284473,1967579,1992816
1284731,1967500,1991427
1285555,1968525,1992088
1285668,1969289,2029848
1286048,1969867,1994310
1286244,1969954,1988736
1286493,1970738,1987412
1286515,1970617,1985486
1286906,1970557,1984611
1287016,1970958,1979474
1287359,1971206,1976785
1287817,1971791,1977852
1287967,1972298,1975662
1288279,1972938,1974432
1288473,1973451,1973985
1288604,1974162,1974747
1288449,1974015,1975609
1287982,1973298,1974445
1287326,1971835,1979530
1287326,1970255,2016234
1286441,1968663,1983782
1285462,1966635,1974458
1284518,1964606,2015656
1283200,1962961,1985060
1282058,1961755,1977683
1279717,1961317,1974680
1279301,1962139,1976050
1278906,1962467,2016188
1278694,1963094,1984549
1278643,1963582,1976543
1278313,1964068,1975568
1278482,1964579,1975447
1278352,1965585,1974521
1278607,1965958,1975992
1278788,1966360,1980108
1278754,1966778,1981220
1279237,1967183,1976129
1279393,1967460,1974803
1279117,1968364,1974633
1279518,1969554,1975509
1279428,1970053,2015457
1279428,1970935,1983208
1279552,1971219,1976396
1279852,1971325,1973879
1279934,1971330,1974318
1280209,1971310,1974646
1280320,1970582,1973935
1280167,1969869,1979572
1280087,1969946,1975330
1279859,1969433,1975019
1279862,1969392,1974716
1279778,1969426,1975547
1279576,1969106,1974549
1279464,1969078,1975002
1279509,1969471,1974438
1279418,1969684,1980252
1279772,1969444,1977202
1279662,1969387,1975498
1279980,1969396,1975337
1280100,1969171,1976830
1280060,1969615,1977807
1280580,1969992,2020138
1280726,1970696,1988050
1280396,1971049,1980024
1280396,1971642,1978030
1280822,1972043,1978369
1280941,1972374,2020093
1281236,1972614,1988603
1281556,1972637,2023608
1281742,1972328,1988408
1282523,1972545,1980412
1282738,1972822,1978626
1282957,1972500,1978034
1283340,1972786,1975977
1283366,1972801,1981277
1283751,1972849,1975179
1284045,1973370,1975504
1284417,1974236,1972235
1284748,1974832,1971818
1285129,1976094,1969562
1285298,1976221,1967230
1285792,1976538,1967746
1285898,1976424,1968765
1286304,1976785,1966804
1286679,1977027,1967630
1286682,1977673,1966530
1286714,1977925,2007593
1286714,1978433,1976146
1286813,1978500,1969809
1287179,1978880,1969573
1287599,1978986,1969646
1287789,1978827,1970088
1288060,1978282,1969616
1288142,1978585,1970347
1289022,1978920,1969979
1289298,1979691,1970873
1289644,1980325,1972074
1289764,1980431,1972110
1290055,1980604,1972322
1290326,1981175,1974541
1290428,1981747,1974182
1290898,1982021,1973372
1291183,1982169,1973187
1291435,1982486,1973514
1291762,1982568,1977913
1291582,1982457,1974594
1291621,1981923,1972942
1291480,1981116,1972362
1290913,1979944,1972307
1290913,1978320,1972591
1290294,1976544,1972305
1289299,1974960,1972718
1288201,1973768,1973049
1286911,1972600,1972375
1285717,1970996,1972396
1283150,1969727,1971926
1282663,1970121,1972801
1282241,1969691,1972951
1281840,1969902,1978193
1281761,1969961,1974099
1281646,1969849,1972298
1281369,1970172,1972720
1281329,1970775,1974098
1281585,1971021,1974588
1281732,1971490,1974357
1281634,1971732,1975277
1281972,1971957,1976476
1281993,1972186,1976141
1282065,1972805,1976561
1282489,1973347,1975799
1282338,1974434,1979596
1282425,1975441,2018701
1282425,1975899,1986991
1282664,1976434,2019807
1283012,1977085,1986594
1283109,1977694,1979852
1283104,1977578,1983166
1283307,1977861,1978881
1283336,1978360,1978197
1283085,1978551,1979286
1283033,1978138,2020754
1282860,1978571,1989317
1282684,1978413,1980557
1282686,1978001,1981729
1282520,1978313,2020323
1282361,1978616,1990882
1282721,1978571,1978083
1283021,1979254,1974377
1283019,1979868,1971633
1283159,1980037,1970299
1283230,1981306,1969458
1283563,1981121,1968488
1283713,1981934,1966339
1283703,1982466,1966561
1283796,1983066,1965418
1283796,1983549,1966551
1284222,1983935,1965469
1284507,1983811,1965284
1284869,1983894,1965073
1285183,1983433,1965761
1285398,1983623,1965317
1286386,1985126,1965964
1286539,1985881,1967250
1286926,1986181,1966758
1287114,1986608,1967608
1287474,1986744,1966910
1287721,1986758,1967922
1287736,1987311,1968306
1288157,1987757,1968624
1288616,1988050,1970112
1288951,1988221,1969440
1289302,1988232,1969339
1289598,1988373,1969742
1289925,1988424,1971030
1289915,1988460,1971152
1290340,1989063,1971037
1290543,1989198,1970897
1290543,1989482,1970486
1290498,1989978,1970089
1290575,1990350,1969452
1291052,1991055,1969370
1291558,1991253,1968535
1291809,1991018,1968336
1292461,1991543,1968356
1292659,1992035,1968379
1292838,1991821,1969461
1293095,1992061,1968938
1293443,1992441,1968853
1293656,1992476,1969382
1293066,1992615,1969272
1293838,1992908,1968811
1294427,1992867,1970876
1294768,1992623,1971781
1294631,1991739,1970345
1293963,1990542,1969516
1293581,1989309,1971611
1292813,1987258,1970818
1291894,1985345,1971908
1290491,1983566,1972998
1289062,1981792,1971532
1287877,1980302,1971014
1287877,1978830,1972300
1286901,1978391,1972088
1286136,1977920,1973488
1285593,1977690,1973172
1285141,1977622,1972736
1284172,1978878,1973772
1284066,1979911,1972972
1284280,1980113,1974685
1284267,1981176,1973410
1284176,1981810,1974197
1284229,1982044,1975166
1284328,1983310,1980881
1284575,1983921,1975828
1284863,1984257,2017452
1285272,1984867,1986423
1285250,1985337,1979484
1285684,1985234,1981738
1285893,1985744,1977370
1285737,1986057,2016664
1286048,1986494,1982607
1286137,1986801,1972439
1286225,1986835,1974850
1286225,1986566,1969000
1286327,1986513,1964658
1286156,1986008,1963222
1286161,1985649,1961554
1286289,1985384,1960356
1286099,1984409,1960939
1285539,1983521,1960774
1285222,1983568,1961304
1285180,1982953,1961135
1285319,1982891,1960868
1285401,1983130,1960790
1285185,1982861,1961744
1285214,1983377,1961680
1285447,1983680,1962219
1285486,1984073,1962833
1285961,1984351,1963521
1285868,1984622,1962768
1286215,1984771,1963893
1286616,1984550,1964883
1286622,1985002,1964341
1286807,1985488,1964716
1286796,1985309,1966010
1286796,1986300,1965085
1287095,1986863,1965546
1287356,1987373,1966513
1287491,1987789,1967495
1287899,1987931,1966447
1288246,1988061,1966077
1288907,1988453,1966881
1289212,1989079,1965682
1289428,1989081,1965983
1289610,1989642,1965563
1290154,1990198,1965012
1290373,1990108,1965370
1290293,1990181,1966962
1290575,1990599,2005980
1291004,1990696,1975629
1291568,1991217,1968075
1291843,1991316,1966034
1291824,1992050,1967821
1292251,1992431,1967140
1292482,1993327,1965323
1292789,1993775,1965904
1293001,1994491,1966137
1292853,1995063,1967450
1293165,1995029,1967454
1293165,1995423,1968770
1293474,1995562,1968859
1293793,1996085,1968729
1294121,1995701,1969691
1294397,1995651,1969249
1294413,1996188,1970797
1295302,1996859,1970642
1295354,1997422,1971001
1295360,1997569,1970897
1295287,1996685,2012902
1294909,1995199,1981549
1293926,1993475,1974336
1293264,1991686,1972665
1292405,1989916,1973005
1291514,1988255,1971357
1290113,1986229,2014476
1289301,1984530,1983099
1288091,1983477,1981710
1287340,1982901,1975003
1287087,1982601,1974883
1286205,1982393,1974817
1285684,1981940,1978476
1285684,1981815,1979295
1285442,1981725,1976340
1285262,1982257,1975523
1285301,1982753,1973944
1285191,1982881,1975846
1285065,1983210,1975262
1285279,1984706,1974024
1285432,1985217,1977775
1285507,1985170,1972493
1285939,1985911,1968814
1286105,1985919,1968262
1286016,1986196,1966638
1286281,1986535,1965144
1286530,1987225,1961836
1286695,1987540,1961294
1287112,1987740,1959984
1287210,1987992,1958464
1287431,1988052,1958463
1287144,1987968,1957803
1287370,1987909,1957510
1286929,1987966,1958253
1286584,1987481,1958380
1286584,1986704,1959155
1286489,1986452,1959240
1286420,1985605,1958693
1286199,1985996,1960654
1286006,1985828,1960395
1286093,1985821,1962423
1285850,1986305,1963304
1285865,1986957,1963669
1285850,1987409,1963351
1286148,1987918,1962729
1286244,1988323,1963566
1286574,1988408,1964793
1286513,1988553,1966674
1286754,1989020,1966117
1287166,1989690,1965524
1287415,1990215,1964429
1287641,1990750,1963707
1287998,1991037,1966147
1288312,1991357,1966194
1288365,1991641,1966459
1288858,1992042,1965997
1288828,1992388,1965643
1289006,1992801,1964539
1288985,1993121,1966084
1288985,1993051,1965400
1289535,1993460,1964567
1289788,1993775,1965840
1290062,1993635,1964833
1290436,1993768,1964822
1291035,1994597,1964364
1291298,1994649,1964988
1291566,1994940,1964845
1291826,1995330,1965553
1292024,1995322,1966521
1291145,1994986,1967222
1292035,1995926,1972787
1292517,1996193,1968829
1292999,1996463,1968609
1293361,1997066,1967826
1293720,1997013,1969546
1293748,1997020,1968793
1294006,1997616,1967856
1293965,1997811,1968803
1294082,1997551,1970797
1293844,1997513,1970366
1293552,1996154,1970896
1293552,1994987,2012414
1293252,1993361,1986323
1292502,1991849,1975152
1291359,1989901,1973815
1290326,1987719,1974540
1289410,1986083,1975601
1286862,1983602,1973335
1286384,1982817,1978022
1285767,1982727,1979495
1285229,1982756,1977566
1285035,1982331,1975925
1284674,1981875,2019184
1284735,1982623,2030093
1284738,1982897,1990888
1284670,1983100,1981097
1284895,1983626,1978843
1285111,1984310,1982833
1285465,1984631,1980416
1285526,1985994,1979063
1285861,1986984,1978758
1285993,1988274,1983461
1286153,1989066,1976277
1286153,1989652,1974945
1286411,1990181,1972400
1286664,1990812,1969851
1286926,1991258,1967294
1287128,1991060,1967730
1287470,1991070,1966473
1287888,1991227,1964057
1287900,1991341,1964229
1287719,1990850,1962873
1287797,1990929,1962422
1287825,1990533,1962543
1287525,1989770,1961096
1287107,1989395,1961553
1287368,1989233,1962155
1287384,1989038,1961871
1287302,1988597,1962723
1287274,1988893,1964872
1287389,1988912,1964685
1287612,1989157,1964352
1287486,1989479,1966464
1287562,1990010,1966002
1287551,1990605,1966774
1287551,1990924,1967977
1287913,1991563,1968014
1287874,1991371,1969031
1288069,1992310,1970061
1288608,1992322,1970162
1288770,1992161,1969286
1289557,1993879,1969922
1289596,1993618,1969434
1289949,1993801,1969149
1290288,1994448,1969635
1290573,1995350,1968255
1290845,1994570,1969880
1290973,1994343,1968360
1291182,1994886,1967685
1291659,1995568,1969357
1292123,1996083,1969061
1292556,1996598,1968949
1292578,1997103,1969351
1292844,1997686,1968879
1293115,1998560,1967875
1293611,1999119,1969841
1293570,1999927,1968543
1293515,2000380,1970709
1293515,2001012,1970757
1294083,2001355,1970159
1294433,2001994,1971320
1294518,2002319,1972387
1294824,2001800,2013762
1294962,2002060,1981704
1295882,2002941,1979316
1296021,2003298,1974972
1296147,2003200,1974368
1296088,2002306,2015759
1295749,2001066,1987945
1295048,1999080,1982920
1294023,1997598,1977994
1293128,1995217,1976986
1292331,1993116,1981072
1291068,1991341,1977712
1289710,1989662,1980233
1288945,1987884,2020166
1288103,1987107,1986493
1287418,1986557,1984390
1286878,1986352,1979797
1286305,1986102,1977847
1286305,1986198,1983008
1285889,1986107,2023002
1285838,1986114,1989460
1285565,1986506,2024999
1285683,1986437,1995207
1285706,1986429,1983147
1285794,1987330,1980925
1285846,1987292,1985944
1286189,1987918,1986225
1286301,1988487,1987070
1286700,1988791,1980165
1286501,1988893,1983233
1286775,1989374,1978045
1287034,1989990,1980458
1287383,1989911,1974724
1287656,1990191,1971035
1287964,1989807,1970642
1287759,1989209,1968119
1287958,1988981,1965808
1288042,1988617,1963927
1287983,1988060,1963854
1287582,1987698,1963528
1287138,1986981,1963051
1287138,1986582,1961515
1287119,1986464,1959788
1286976,1986112,1960342
1286582,1986769,1962168
1286646,1985772,1962443
1286585,1986040,1962824
1286653,1986330,1963821
1286768,1986778,1964226
1286829,1987130,1963325
1287087,1987770,1963604
1287254,1988339,1963220
1287269,1988847,1964850
1287523,1989636,1965632
1287690,1990671,1965806
1288310,1991558,1966209
1288586,1992499,1966807
1288750,1993247,1966579
1289132,1994219,2007360
1289479,1995192,1975264
1289830,1995976,1968879
1290187,1996974,1966199
1290223,1997696,1965173
1290223,1998140,1965054
1290546,1998496,1963867
1290859,1998760,1962758
1291140,1999481,1962673
1291340,1999437,1962420
1291798,1999544,1962246
1292589,2000539,1962227
1292813,2001154,1961368
1293144,2001187,1960153
1293573,2001500,1961292
1293710,2001834,1961701
1294139,2001759,1960720
1294216,2001910,1961512
1294529,2002290,1960968
1294951,2002328,1960280
1295367,2002403,1961149
1295399,2002735,1962166
1295877,2002528,1961046
1296023,2002226,1960310
1296232,2002527,1960721
1296263,2002533,1962612
1296421,2002563,1960752
1296421,2001923,1960264
1296373,2002137,1960221
1296704,2001257,1961355
1296672,2000089,1959910
1296413,1998345,1960824
1295928,1996053,1960602
1292672,1991461,1960904
1291495,1988697,1962244
1290377,1987410,1961850
1289373,1985956,1963003
1288491,1984685,1962779
1287684,1983038,1963249
1287006,1982444,1963836
1286560,1982015,1964027
1286279,1982429,1963697
1286426,1982553,1964106
1285972,1982942,1963121
1285969,1983216,1963574
1286096,1983466,1961801
1285790,1983680,1962414
1286243,1984001,1960157
1286055,1984625,1960046
1285756,1984923,1958348
1285756,1985376,1955484
1286154,1985995,1957952
1286206,1986355,1951932
1286343,1986713,1950924
1286775,1986864,1948846
1286925,1987051,1947360
1287813,1987352,1946725
1287862,1987629,1947124
1287762,1987105,1947061
1287866,1987296,1948050
1287901,1986782,1946252
1287756,1986029,1949529
1287821,1985769,1949665
1287349,1985279,1949550
1287633,1984552,1950399
1287331,1984497,1952263
1287397,1984047,1952643
1287194,1983563,1953784
1287166,1983624,1954162
1286886,1983739,1954327
1287057,1984168,1954717
1286549,1984229,1954775
1286627,1984219,1956269
1286627,1984550,1956365
1286707,1984810,1956950
1286992,1985244,1956786
1287007,1984839,1956215
1287228,1984632,1956422
1287212,1984647,1955095
1287923,1984439,1955009
1287963,1985054,1954699
1288313,1984886,1954313
1288514,1985692,1954279
1288691,1985356,1954577
1288368,1985168,1953627
1289028,1985540,1953398
1289274,1985727,1952352
1289755,1986000,1952191
1288996,1986318,1953106
1289848,1986388,1952932
1290396,1986465,1953577
1290608,1986940,1953007
1289931,1987102,1953539
1290688,1987990,1952715
1291031,1988075,1953787
1291031,1987871,1953972
1291215,1988746,1953168
1291073,1988371,1954066
1291920,1989287,1952927
1292216,1988618,1953666
1292494,1988665,1953733
1293043,1988674,1954673
1293122,1988592,1952876
1294350,1988427,1953430
1293882,1988417,1952789
1293915,1988261,1952312
1294086,1987687,1953603
1295052,1987775,1953325
1294586,1988298,1952806
1294709,1988572,1953191
1295081,1988879,1951666
1295824,1988802,1951360
1295445,1988792,1951158
1295272,1987912,1950255
1294967,1986560,1949858
1294829,1984683,1949805
1293752,1982833,1946953
1292287,1980376,1943254
1292287,1977694,1940221
1291366,1974910,1938169
1289775,1972417,1935572
1288442,1970537,1931632
1287334,1967939,1929503
1286063,1966398,1927415
1283575,1964670,1926148
1282963,1963999,1926126
1282460,1963779,1923194
1282357,1963994,1924183
1282250,1963778,1924557
1281677,1963470,1924054
1281775,1963967,1925874
1281910,1964304,1926668
1281915,1964552,1926181
1281998,1965276,1926927
1282174,1965429,1929145
1282617,1966278,1930327
1282434,1966896,1930784
1282751,1967585,1930773
1282873,1968791,1931214
1282839,1969939,1930987
1282839,1969414,1929752
1282882,1968820,1931078
1283331,1968101,1930674
1283420,1969000,1929920
1283550,1968204,1928474
1283684,1967409,1927486
1283491,1966991,1926253
1283153,1965801,1924448
1282661,1965230,1922804
1282465,1964826,1919977
1282265,1964647,1916341
1281908,1963641,1914943
1281737,1962542,1912122
1281707,1962878,1910803
1281556,1962292,1908791
1281728,1962811,1907428
1281546,1962324,1904620
1281578,1962327,1903402
1281634,1962312,1902240
1281940,1962447,1901949
1282041,1963270,1900238
1282078,1964084,1900155
1282150,1964937,1900700
1282150,1965515,1901849
1282490,1966188,1902699
1282933,1967174,1903469
1283184,1968569,1904986
1283516,1969059,1904912
1283765,1969827,1905976
1284924,1972148,1904827
1285426,1973780,1904320
1285636,1974630,1904364
1286109,1975663,1905298
1286488,1975951,1906438
1286714,1975982,1906851
1286918,1976373,1907846
1287338,1976684,1908206
1287937,1976879,1908335
1288265,1977152,1907173
1288344,1977325,1907197
1288700,1977097,1908522
1288912,1977248,1909183
1289227,1977786,1908259
1289622,1978307,1909058
1289852,1978797,1909247
1289852,1979369,1908947
1290069,1980224,1909801
1290334,1980661,1908629
1290786,1981393,1907577
1290967,1981769,1907376
1291303,1981342,1907047
1291568,1979861,1903357
1291058,1978433,1901659
1290358,1976695,1897887
1289834,1974650,1894325
1288846,1972605,1890318
1287786,1970330,1888394
1286766,1968581,1886017
1285639,1967381,1885024
1284945,1965849,1881690
1284462,1964718,1881504
1283662,1964243,1880514
1283172,1963664,1879633
1282756,1964028,1879905
1282827,1964951,1877468
1282844,1965978,1877384
1282487,1967076,1878094
1282487,1968467,1878487
1282510,1969717,1879022
1282704,1970901,1882027
1282984,1972222,1883200
1283279,1972928,1884139
1283509,1973030,1885214
1284537,1976664,1886786
1284937,1978411,1885983
1285295,1980355,1887200
1285857,1983034,1887468
1286173,1984814,1887383
1286770,1986719,1888691
1286878,1987634,1888540
1287562,1988637,1890228
1287967,1989688,1891180
1288434,1990599,1889955
1288613,1991185,1889344
1288648,1991501,1887613
1288948,1991284,1887226
1289377,1991459,1888659
1289566,1991256,1887054
1289501,1991655,1885681
1289168,1991911,1885171
1289168,1992347,1885603
1289483,1992522,1884507
1289524,1992296,1884570
1289650,1992254,1885565
1289792,1991640,1885187
1290009,1991453,1885334
1290592,1991662,1886859
1290876,1991604,1886991
1290934,1991268,1888215
1291400,1991042,1888104
1291603,1990786,1888198
1291910,1990414,1889335
1292134,1990466,1888865
1292520,1990184,1890083
1292788,1990264,1890568
1292994,1990569,1890822
1293342,1990509,1890680
1293755,1990830,1890895
1294064,1990709,1892085
1294224,1990159,1893030
1294083,1990399,1893182
1294185,1990999,1893234
1294185,1991195,1893857
1294541,1991104,1894666
1295085,1990961,1894718
1295200,1991103,1896136
1295393,1990481,1895723
1295732,1990428,1895283
1296094,1991235,1894133
1296154,1990776,1896552
1296032,1990273,1895094
1295473,1988978,1896511
1294883,1987553,1897801
1293978,1984948,1898530
1292941,1983347,1898923
1291863,1980965,1900993
1290752,1979051,1901859
1289613,1977469,1903547
1288791,1976283,1901762
1288056,1974998,1900546
1287309,1975007,1900941
1286889,1974728,1899254
1286193,1975080,1898401
1285923,1975225,1896997
1285777,1975200,1895640
1285777,1975544,1893402
1285901,1975924,1888780
1286011,1976068,1886081
1286047,1976415,1883805
1286279,1976582,1882028
1286415,1977909,1880679
1286661,1977701,1878397
1286805,1979148,1878454
1287333,1980193,1876678
1287398,1981037,1875613
1287790,1982079,1875758
1288034,1982923,1875118
1288460,1983741,1875070
1289045,1984357,1876683
1289376,1985714,1877793
1289480,1986446,1879779
1290105,1986391,1881402
1289599,1986419,1883292
1289787,1986806,1884918
1289663,1986276,1887766
1289494,1986212,1888796
1289494,1985957,1891456
1289043,1985921,1893059
1289070,1985912,1896578
1289202,1986514,1899082
1289144,1987065,1898781
1289251,1987056,1898829
1289089,1987458,1897200
1289775,1987735,1898098
1290092,1988690,1897971
1290145,1989509,1897662
1290496,1990801,1896620
1290651,1991538,1896016
1290985,1991608,1896076
1291323,1992939,1897122
1291547,1993430,1894782
1292281,1994210,1895277
1292503,1994746,1894186
1292733,1995619,1893096
1293153,1996042,1892257
1293741,1996700,1892628
1294246,1997699,1892543
1294328,1998714,1893438
1294375,1999294,1892920
1294375,2000181,1893791
1294752,2000614,1893155
1295188,2001143,1892504
1294636,2001541,1892208
1295565,2001590,1893167
1295965,2001697,1893230
1296216,2002431,1893153
1297283,2002506,1893574
1297261,2002536,1893240
1296594,2001582,1894251
1296607,2000046,1893317
1296014,1997799,1894875
1294761,1994950,1895014
1293552,1992771,1895539
1292527,1990047,1895899
1291187,1987798,1896229
1289941,1985925,1895974
1289149,1983929,1896574
1288145,1982896,1897398
1287659,1982402,1898046
1287021,1982380,1899047
1286445,1982327,1898815
1286445,1982329,1899245
1286161,1982522,1901335
1285917,1982726,1902284
1285855,1983229,1901803
1286917,1983232,1900904
1285923,1983410,1899664
1286054,1984311,1899922
1286170,1984919,1900116
1286377,1984546,1899644
1286532,1984764,1899927
1286728,1984652,1900765
1286847,1984578,1900416
1287137,1984786,1902312
1287195,1985618,1902281
1287737,1985844,1903183
1288181,1985488,1904538
1288094,1985221,1904986
1288022,1984668,1905837
1288014,1983658,1905770
1287911,1983147,1905096
1287698,1982135,1903968
1287393,1980337,1901517
1287157,1978307,1898283
1287157,1976394,1895708
1287317,1974718,1893634
1287178,1973287,1889697
1287191,1972590,1887239
1287062,1971442,1886929
1287282,1966459,1887302
1287492,1964363,1886745
1287660,1964955,1887872
1287998,1965518,1889819
1288226,1966618,1889171
1288404,1966765,1890287
1288632,1967054,1889860
1288796,1968022,1891284
1289344,1968708,1893299
1289836,1969370,1894930
1290146,1969630,1896337
1290396,1970065,1895829
1290851,1970697,1895863
1291011,1971142,1895916
1291317,1971454,1897515
1291730,1971752,1898892
1291690,1971599,1900740
1291906,1971575,1901067
1291906,1972205,1901525
1292293,1971528,1902178
1292668,1971987,1903701
1293087,1971981,1903245
1293492,1972273,1903228
1293422,1972851,1901237
1294459,1973842,1901688
1294633,1974912,1902273
1295102,1975633,1900660
1295141,1976050,1901424
1295227,1976197,1900602
1295611,1976366,1900674
1295959,1976269,1901589
1296204,1976197,1900219
1296511,1975827,1901243
1296680,1975516,1900823
1296619,1974462,1900163
1296093,1973101,1900973
1295295,1971170,1900380
1294485,1968730,1899970
1292904,1965705,1900358
1292904,1962505,1900670
1291264,1959687,1902598
1289868,1956960,1902259
1288445,1955229,1903093
1286937,1953394,1904700
1285712,1951906,1904893
1284826,1951297,1903734
1282844,1950820,1905305
1282750,1949651,1905478
1282381,1950440,1907191
1282335,1950376,1906523
1281963,1950783,1907239
1281920,1950785,1907035
1281860,1951929,1908642
1282246,1951857,1909704
1282142,1952402,1909299
1282196,1952770,1909319
1282193,1953333,1908393
1282412,1954122,1909608
1282462,1955531,1909917
1282590,1955880,1909919
1282761,1955875,1910574
1282449,1955969,1909814
1282449,1955852,1910579
1282469,1955880,1911359
1282601,1955887,1912026
1282802,1955586,1913053
1282598,1955513,1912177
1282554,1955305,1913009
1281868,1956030,1912940
1281592,1956403,1913618
1281676,1955929,1914112
1281372,1955527,1913637
1281166,1955495,1912557
1280964,1955280,1910792
1281026,1955731,1909168
1281050,1956167,1907905
1281402,1956603,1905900
1281431,1956989,1903316
1281508,1957676,1902334
1281704,1958077,1900133
1281890,1958957,1898574
1282096,1959858,1897329
1282218,1961201,1895657
1282296,1962082,1894886
1282471,1962601,1894675
1282471,1963018,1895285
1282758,1963510,1894278
1283244,1963495,1894228
1283412,1963707,1895652
1283656,1964036,1896642
1283844,1964774,1897954
1284957,1966108,1899037
1285233,1966396,1898988
1285406,1967109,1898709
1285778,1967872,1899100
1285921,1968179,1899809
1286059,1969237,1901295
1286557,1969946,1899845
1287230,1970787,1900940
1287486,1971310,1900689
1287824,1971727,1901838
1288175,1972322,1902100
1288392,1972947,1901333
1288580,1973169,1901257
1288675,1974087,1903751
1288977,1974145,1902586
1288977,1974638,1900970
1289430,1974913,1899182
1289851,1975181,1899630
1290074,1975883,1899316
1290495,1975910,1898924
1290514,1976097,1897122
1291465,1977257,1897321
1291735,1978027,1897411
1291895,1978146,1896968
1292284,1978825,1898559
1292524,1979430,1896847
1292548,1979621,1898786
1292796,1980588,1898109
1293199,1981018,1898314
1293773,1981486,1898610
1294155,1981512,1899405
1294163,1981676,1900831
1294331,1981690,1901204
1294574,1981685,1901118
1294169,1980760,1902397
1293687,1980234,1902699
1292751,1978268,1905329
1292751,1976402,1903659
1291357,1974357,1904857
1289985,1972084,1905128
1288912,1970283,1906296
1287536,1967726,1908079
1286493,1966307,1907923
1283511,1965095,1909876
1282862,1964214,1909628
1282734,1963996,1909797
1282550,1964244,1910525
1282224,1964794,1910337
1282123,1965259,1910544
1281952,1966088,1911014
1282243,1967002,1909802
1282522,1967657,1910359
1282704,1968985,1910782
1282707,1970204,1910864
1283150,1970819,1911741
1283046,1971590,1911592
1283478,1972237,1911914
1283455,1972461,1912780
1283681,1973286,1912936
1283681,1973947,1912233
1283728,1974530,1911953
1284048,1975226,1910977
1284300,1975891,1908562
1284446,1976086,1906512
1284654,1975946,1903333
1284557,1976304,1900299
1284605,1976505,1898732
1284628,1975890,1896791
1284401,1975553,1896255
1284091,1974833,1894978
1283952,1973991,1895370
1283980,1973811,1893923
1283830,1974087,1894627
1283952,1974258,1895428
1283969,1974477,1896595
1284454,1974756,1896713
1284542,1975262,1899275
1284771,1975963,1898775
1284894,1977002,1900963
1285047,1977598,1900324
1285048,1978193,1901884
1285221,1978180,1903368
1285221,1978800,1903216
1285468,1979566,1903310
1285809,1980680,1904313
1286214,1981440,1905924
1286418,1981247,1903086
1286618,1981885,1900843
1287472,1983183,1902066
1287951,1984066,1901738
1288242,1984216,1901832
1288444,1984347,1902238
1288875,1983985,1901721
1288295,1984220,1902775
1289148,1984861,1900414
1289678,1985410,1901030
1290251,1986023,1899457
1290640,1986678,1898595
1290878,1987308,1898425
1291072,1987705,1898080
1291281,1987902,1896041
1290839,1988029,1896161
1291455,1988619,1895780
1291846,1989095,1894728
1291846,1989134,1894876
1292410,1989624,1893147
1292525,1990102,1893259
1292907,1989724,1894815
1293140,1990294,1894993
1293389,1990353,1894736
1292984,1989308,1895082
1292737,1987857,1893514
1292000,1985982,1895348
1290986,1983398,1893801
1289702,1980946,1892968
1288136,1977826,1892818
1287856,1975941,1893429
1286082,1974100,1893195
1284900,1972983,1893909
1284110,1971934,1892510
1283434,1971522,1891101
1282901,1971341,1890230
1282463,1971250,1889701
1282268,1971552,1890321
1282721,1972286,1889026
1282057,1972631,1888771
1282057,1973172,1888725
1281836,1973582,1890713
1282177,1974123,1891022
1282283,1974476,1890401
1282286,1974793,1890642
1282521,1974937,1892401
1283187,1976420,1891858
1283345,1977886,1892437
1283442,1977544,1892437
1283825,1978116,1892150
1284155,1978520,1893517
1284528,1978202,1892440
1284622,1978710,1892824
1284751,1978476,1891505
1284946,1978282,1888503
1285398,1978408,1886436
1285321,1978243,1883582
1285202,1977708,1882520
1284991,1977414,1880329
1284846,1977146,1878331
1284977,1976834,1876411
1284593,1976669,1875983
1284230,1976434,1874366
1284230,1976544,1875673
1284245,1976418,1873781
1284283,1976635,1874188
1284260,1976885,1873931
1284312,1976951,1873867
1284426,1977691,1874448
1284753,1978789,1875382
1285211,1979580,1876448
1285558,1980197,1876354
1285756,1980960,1875670
1286057,1981130,1876742
1286314,1981373,1877305
1286540,1982185,1877555
1286879,1982785,1877956
1287476,1983360,1879320
1287827,1983917,1880042
1288013,1984571,1881999
1288533,1984558,1882682
1288637,1985279,1884652
1289052,1985702,1885735
1289298,1986849,1887239
1289544,1987665,1888003
1289544,1987433,1886393
1289992,1987921,1887261
1290366,1988091,1886418
1290873,1988558,1885594
1291134,1989134,1885720
1291578,1989339,1885708
1292450,1990808,1885195
1292587,1991908,1886163
1293340,1991840,1887002
1293393,1992358,1886949
1293685,1992166,1887368
1293869,1992678,1888517
1293967,1992351,1888047
1294339,1993247,1889258
1295091,1993902,1889650
1295249,1994881,1890138
1295571,1995217,1889961
1295692,1995319,1889378
1295902,1995397,1890417
1295921,1994937,1891166
1295616,1993698,1892023
1294809,1992231,1892114
1293526,1990040,1892792
1292381,1987346,1892806
1292381,1985011,1891856
1291429,1982298,1892754
1290405,1980746,1893122
1288739,1978332,1892986
1287668,1977025,1892402
1285519,1975730,1893815
1284860,1975590,1893316
1284663,1976040,1894270
1284432,1976724,1893263
1284555,1976974,1893776
1284200,1977143,1892923
1284203,1977588,1893768
1284277,1977982,1893112
1284612,1978349,1891750
1284702,1978745,1890979
1284885,1978842,1891944
1285249,1979223,1892665
1285102,1979884,1892269
1285608,1980487,1891943
1285807,1981513,1893895
1285913,1982355,1895433
1285913,1982879,1895988
1286179,1983542,1897017
1286466,1983760,1896801
1286814,1983638,1897460
1286945,1983097,1898912
1287172,1982554,1894640
1287041,1981625,1893360
1286977,1981741,1891352
1286556,1980874,1887234
1286389,1980649,1883163
1286308,1980259,1881393
1286098,1979352,1878914
1285773,1979185,1877256
1285956,1979237,1876221
1285948,1978841,1876017
1286067,1979097,1874497
1286018,1978686,1875831
1286122,1979006,1875665
1286234,1979571,1875861
1286340,1980372,1875786
1286581,1981133,1877079
1286716,1981958,1877487
1286548,1982642,1877258
1286548,1983475,1878865
1287049,1983427,1880096
1287255,1984347,1882142
1287469,1984649,1884013
1287815,1984748,1884970
1288057,1985193,1886611
1288868,1986284,1886569
1289196,1987442,1887338
1289543,1987574,1886765
1289849,1987723,1888813
1289909,1987602,1889765
1290378,1987412,1889618
1290716,1987580,1890283
1291118,1988166,1890917
1291551,1988758,1892087
1291778,1989140,1889546
1292256,1989719,1889256
1292335,1990260,1888980
1292453,1990730,1888687
1293143,1990957,1888327
1292972,1991348,1887952
1293072,1991171,1887856
1293072,1991167,1888175
1293582,1991353,1887689
1293711,1991427,1887065
1293963,1991436,1886493
1294298,1991415,1886167
1294395,1991297,1885044
1294737,1990075,1886925
1294173,1988757,1886074
1293261,1986693,1887573
1292273,1984428,1888263
1291033,1981151,1890342
1289514,1977737,1891860
1288138,1975300,1891896
1286548,1972822,1891354
1285473,1971387,1890846
1284245,1970087,1892261
1283617,1968971,1892052
1283078,1968604,1893938
1282407,1968492,1894053
1282048,1968609,1894706
1281553,1968795,1894989
1281124,1968812,1895521
1281124,1969004,1896167
1281336,1968778,1896840
1281150,1969462,1897030
1281262,1969789,1898240
1281316,1969867,1898220
1281250,1970155,1899238
1281722,1972036,1899276
1282087,1973080,1898820
1282242,1973286,1899142
1282756,1974217,1898052
1282843,1974333,1898944
1283319,1974133,1899724
1283289,1974390,1900645
1283571,1974977,1901104
1284064,1975284,1902901
1283943,1975244,1902077
1284046,1975434,1904136
1284132,1975006,1902891
1283884,1974978,1903187
1283747,1975494,1903247
1283430,1975005,1901825
1283136,1974600,1901626
1283136,1974121,1900936
1283015,1973766,1899165
1282865,1973991,1895685
1282852,1973881,1891726
1282822,1973904,1888779
1282742,1973594,1885481
1283216,1973931,1883604
1283200,1973730,1879623
1283358,1973784,1875805
1283669,1974022,1875377
1283833,1974450,1874046
1283855,1974543,1875036
1284074,1975517,1876834
1284485,1976334,1877749
1284802,1977349,1879027
1285318,1978158,1881213
1285691,1979130,1883253
1286014,1979610,1884981
1286325,1979929,1885751
1286581,1980624,1887939
1286621,1981115,1887766
1287008,1980928,1889043
1287008,1982068,1890495
1287260,1982316,1891555
1287585,1982332,1894096
1288123,1983010,1893156
1288318,1983554,1893666
1288721,1984024,1894598
1289681,1985633,1894454
1289909,1986380,1894972
1289760,1987214,1896426
1290387,1987321,1895401
1290734,1987327,1895111
1290860,1987298,1893184
1290999,1987673,1893574
1291388,1988173,1892659
1291916,1988595,1892821
1292209,1989003,1891685
1292431,1989253,1891320
1292846,1989558,1891908
1293027,1989475,1891097
1293333,1989888,1891207
1293447,1990570,1889889
1293253,1990580,1888999
1293253,1989928,1889262
1293319,1988373,1891215
1292976,1986213,1892304
1292503,1984172,1891986
1291773,1981699,1892132
1291944,1978520,1893275
1286145,1973393,1894541
1284724,1971599,1894305
1283566,1969628,1894524
1282579,1968666,1894342
1281685,1968268,1895636
1281012,1967412,1895425
1280703,1967012,1894634
1280349,1967107,1895598
1280124,1967345,1897162
1281055,1967897,1897230
1280498,1968214,1898006
1280401,1968421,1899182
1280139,1969497,1899194
1280399,1970129,1899717
1280896,1971368,1900641
1280876,1971996,1899044
1280876,1972755,1899482
1280820,1973122,1899841
1281336,1973338,1900836
1281545,1973953,1900379
1281886,1974555,1900634
1282186,1974440,1900503
1282376,1974902,1901297
1283139,1975480,1899743
1283305,1975659,1898640
1283362,1975213,1896388
1283281,1975292,1894847
1283241,1974571,1894937
1283010,1973651,1895897
1282895,1973278,1897835
1282690,1972397,1897904
1282592,1972104,1898019
1282334,1971543,1897170
1282320,1971294,1897130
1282330,1971235,1895066
1282335,1971277,1894181
1282108,1971679,1892567
1282236,1972440,1889592
1282060,1972779,1885625
1282060,1973443,1883619
1282326,1974346,1880975
1282467,1975058,1880162
1282776,1975574,1877239
1282843,1975941,1876296
1283362,1976084,1876717
1283986,1977292,1876861
1283966,1977677,1875523
1284785,1978177,1876660
1284719,1978623,1878276
1285304,1978505,1879424
1285514,1978836,1881408
1285473,1979499,1883282
1286246,1979951,1884191
1286868,1980446,1885424
1286958,1980006,1886211
1287430,1980687,1886334
1287667,1980850,1886199
1287992,1981327,1887372
1288319,1981726,1887840
1288354,1982147,1889880
1288617,1982706,1890911
1288617,1983210,1891989
1288960,1983778,1892803
1289071,1984491,1892350
1289600,1984285,1893841
1289980,1984173,1893797
1289962,1983557,1893259
1290706,1984257,1892465
1291095,1984749,1892249
1291270,1984512,1892550
1291631,1985290,1890247
1291797,1985415,1889627
1292251,1985648,1889664
1292228,1986008,1889490
1292736,1986583,1889735
1292923,1986966,1890102
1293041,1986482,1888410
1292897,1985440,1888183
1292523,1983607,1887778
1291778,1980874,1888629
1290903,1978726,1889112
1289382,1976162,1889066
1287713,1973198,1888435
1287713,1970371,1888097
1286020,1968015,1888342
1284485,1965654,1889635
1283304,1964118,1890868
1282133,1962441,1890961
1281271,1961713,1892253
1279382,1960891,1894305
1279156,1961099,1894112
1279080,1961183,1893934
1278884,1961959,1894542
1278884,1962013,1894371
1278786,1962225,1895462
1278828,1962998,1896371
1279134,1963502,1898574
1279443,1964158,1898459
1279503,1964934,1900173
1279895,1965629,1899471
1280103,1966018,1900475
1280412,1966967,1900066
1280746,1968017,1901335
1281166,1969444,1901185
1281169,1970126,1901805
1281169,1970677,1901314
1281447,1971077,1901981
1281664,1970604,1902429
1282008,1970579,1902391
1282039,1969941,1904106
1282107,1969098,1902873
1281980,1968644,1903762
1281719,1967121,1904621
1281393,1966451,1904082
1281223,1965882,1905243
1281041,1965741,1904959
1280875,1965205,1905296
1280503,1964642,1902036
1280785,1964846,1901067
1280887,1964812,1897651
1280958,1965180,1893098
1280975,1964799,1889375
1280851,1964972,1886560
1281052,1965313,1884606
1281647,1965778,1881124
1281698,1965998,1879391
1281662,1966614,1877392
1281793,1966523,1876803
1281793,1967046,1877567
1281952,1967332,1876537
1282431,1967405,1876168
1282874,1967846,1878052
1283170,1968347,1878689
1283342,1968464,1880005
1283946,1969979,1880228
1284434,1970790,1882056
1284946,1971130,1882435
1285242,1971479,1885553
1285481,1972284,1886498
1285753,1972104,1887788
1286077,1972559,1888605
1286472,1973085,1890053
1287004,1973454,1892713
1287286,1973773,1893602
1287690,1974629,1893468
1288080,1974560,1893574
1288184,1975192,1895235
1288200,1975773,1895396
1288854,1977057,1895178
1288893,1977419,1894264
1288893,1977908,1894228
1289126,1978436,1893843
1289437,1979079,1892738
1289772,1979524,1891740
1289987,1979655,1893122
1290425,1979413,1890818
1290368,1980298,1889703
1291432,1980864,1889218
1291564,1981346,1889490
1292009,1981925,1888421
1292309,1983213,1886934
1292195,1982178,1887335
1292313,1981344,1884664
1291917,1980401,1883758
1291180,1979077,1881535
1290156,1976455,1880801
1289111,1973340,1878762
1287739,1969963,1880015
1286006,1966799,1880309
1284541,1964289,1881356
1282982,1962214,1880573
1281371,1960334,1881766
1281371,1958643,1881618
1280529,1958024,1882671
1279720,1957396,1882396
1279085,1957451,1884651
1278450,1957397,1883713
1278229,1957378,1883676
1277987,1959023,1883161
1278114,1959778,1884403
1277339,1960288,1884810
1278196,1961164,1885511
1278560,1962121,1886350
1278779,1962874,1885761
1278661,1964055,1886166
1279235,1965122,1885775
1280043,1966069,1885717
1280385,1967192,1886131
1280874,1968375,1886929
1281240,1968845,1887502
1281555,1969512,1887113
1281628,1969757,1887013
1283070,1970745,1887692
1282142,1970934,1886195
1282142,1970361,1885051
1281906,1970462,1884111
1282136,1969980,1881842
1282745,1969204,1878215
1282057,1968395,1875589
1281935,1967227,1872764
1281574,1967296,1869356
1281100,1966957,1865261
1280859,1966543,1863596
1280868,1966659,1860902
1280792,1966419,1860612
1280882,1966402,1860144
1280858,1966931,1860631
1280931,1967701,1861515
1281617,1968173,1863073
1281952,1968308,1864836
1281750,1968916,1866664
1282030,1969035,1867709
1282368,1969647,1869644
1282608,1970312,1870602
1282791,1970793,1872091
1283020,1971049,1873472
1283020,1971484,1876031
1283387,1971687,1878832
1283590,1972162,1878144
1283844,1973068,1880345
1284240,1974740,1880706
1284560,1974487,1881961
1285648,1975104,1880055
1285923,1976379,1879212
1286177,1976080,1879277
1286748,1976942,1878697
1286912,1977135,1878765
1287232,1977189,1877609
1287354,1977612,1877529
1287707,1978005,1877651
1288085,1978289,1876467
1288696,1978748,1876693
1289035,1978991,1877041
1289342,1979685,1876172
1289489,1979639,1876894
1289829,1980475,1876864
1290221,1980372,1876950
1290211,1981013,1878947
1290211,1981009,1878952
1290464,1981950,1879680
1290599,1981967,1879065
1291124,1982742,1879066
1291417,1983084,1878656
1291726,1983424,1876433
1292474,1983918,1875368
1292485,1984662,1874190
1292517,1984553,1873579
1292538,1983687,1873277
1291947,1981835,1875810
1291125,1979472,1876376
1289694,1976531,1878388
1288540,1973569,1881009
1287073,1970378,1883704
1285589,1967718,1884610
1284069,1964549,1885787
1282596,1962211,1885346
1281400,1960328,1886282
1280510,1959203,1887330
1279882,1958155,1889561
1279043,1958025,1889023
1278320,1958155,1890176
1278320,1958346,1890325
1278036,1958959,1888463
1277988,1959639,1887274
1278173,1960228,1886068
1278061,1961100,1883123
1278319,1961934,1881610
1278640,1963741,1877302
1279068,1965125,1874408
1279489,1966159,1872033
1279764,1966778,1869972
1280100,1967306,1868890
1280455,1967246,1866942
1280476,1968027,1865606
1280948,1968662,1865873
1281348,1968929,1867220
1281747,1969373,1867093
1282032,1969805,1868878
1282239,1969634,1871194
1282202,1969474,1872131
1281939,1969600,1872252
1281825,1969050,1873458
1281449,1968348,1874110
1281449,1967039,1874859
1281328,1966397,1876907
1281038,1965507,1877184
1281128,1965422,1878291
1280611,1964998,1880327
1280469,1964804,1881842
1280239,1964835,1882670
1280542,1965992,1882564
1280618,1966365,1882935
1280760,1967065,1883685
1281100,1967537,1884953
1281163,1967889,1883916
1281423,1968078,1882437
1281777,1968939,1880562
1281963,1969645,1879773
1282195,1970357,1880958
1282782,1971308,1879950
1283225,1972008,1878660
1283512,1972592,1879470
1283733,1973563,1879864
1284152,1973969,1879454
1284269,1974843,1879079
1284607,1975316,1879954
1284607,1975748,1880531
1284881,1976232,1881428
1285150,1976805,1880845
1285431,1977666,1881275
1286107,1978152,1882170
1286296,1978439,1883227
1286587,1979820,1883981
1287760,1980339,1883922
1288145,1981044,1884721
1288413,1981679,1884979
1288840,1981940,1885562
1289004,1982019,1887992
1289295,1982396,1887090
1289608,1982777,1888318
1290030,1983108,1889013
1290442,1983521,1891371
1290676,1984337,1892960
1291086,1984135,1894331
1291288,1984611,1895157
1291537,1985061,1895759
1291725,1985771,1896088
1291802,1986279,1897878
1291802,1986326,1897432
1292000,1986668,1898052
1292054,1986265,1896852
1292202,1984247,1897309
1291956,1981936,1896314
1291178,1978716,1894921
1287168,1972188,1892436
1285518,1969168,1888516
1283681,1965518,1884733
1282279,1962764,1881957
1281233,1960393,1878789
1279751,1958375,1875145
1278775,1957115,1874569
1278370,1957220,1874461
1277594,1957131,1874761
1277495,1957963,1875316
1277328,1958318,1877103
1277031,1959020,1877084
1277280,1959928,1877281
1277298,1961011,1878189
1277430,1962123,1879133
1277589,1963258,1879510
1277589,1963979,1881393
1277516,1965092,1883008
1278100,1965749,1885054
1278251,1967221,1884400
1278810,1967950,1885629
1279140,1968752,1885665
1279127,1969525,1887022
1280573,1971253,1887380
1281002,1971973,1888964
1281112,1972249,1887895
1281410,1972418,1888981
1281359,1972131,1889609
1281415,1971350,1891220
1281307,1970860,1891356
1281307,1970172,1889063
1281133,1969289,1888122
1281061,1968798,1887678
1280587,1968218,1886494
1280867,1967813,1886151
1280554,1967556,1885369
1280704,1967745,1885850
1280513,1968493,1888069
1280248,1968544,1886746
1280248,1968778,1885382
1280375,1968956,1887596
1280470,1968917,1886307
1280282,1969718,1886078
1280711,1969845,1886239
1280954,1970305,1886336
1281305,1971689,1887714
1281610,1972388,1886052
1282163,1972541,1886965
1282057,1973416,1888231
1282692,1974144,1889012
1283112,1974398,1890290
1283463,1974767,1890570
1283584,1975043,1892476
1284197,1975510,1893432
1284623,1976711,1893600
1284973,1976917,1894199
1285339,1976934,1895572
1285722,1977734,1894963
1285991,1978076,1896299
1286465,1978829,1896754
1286597,1979568,1897311
1286790,1980047,1897067
1286790,1980555,1899249
1287223,1980623,1899698
1287637,1981046,1899105
1287805,1981101,1898623
1288146,1981110,1899181
1288238,1981938,1899354
1289522,1982786,1898947
1289686,1983574,1898494
1289904,1984132,1897627
1290209,1984656,1896020
1290607,1984810,1894525
1290683,1984544,1888069
1290744,1985209,1883737
1291244,1985427,1880921
1291132,1985052,1877595
1290992,1984192,1874692
1290453,1981891,1872806
1289460,1979418,1872171
1288224,1976932,1871894
1286858,1973787,1871504
1285022,1970514,1871743
1283403,1967181,1873005
1283403,1964203,1873302
1281768,1961813,1875467
1280309,1959859,1876473
1279246,1959019,1877923
1278233,1958247,1878949
1277368,1958216,1880821
1276328,1959755,1883074
1275948,1961080,1883015
1276260,1961934,1884265
1276495,1963860,1885606
1276473,1964450,1885961
1276583,1965673,1887741
1276914,1966274,1889189
1277230,1967377,1888526
1277928,1968186,1886756
1278121,1969102,1886802
1278574,1969865,1885328
1279012,1970860,1884645
1279349,1971631,1885602
1279796,1972677,1885232
1279940,1974015,1884888
1280157,1974483,1883793
1280157,1974816,1883012
1280643,1975954,1883712
1280835,1974731,1883573
1281013,1974122,1884745
1280987,1973398,1885642
1280794,1972324,1886901
1280350,1971786,1887524
1279799,1971515,1886995
1279832,1970763,1886404
1279733,1970246,1887300
1279423,1970004,1887080
1279433,1969237,1888090
1279393,1969721,1888822
1279586,1970132,1890832
1279577,1970609,1891217
1280043,1971444,1890734
1280363,1971658,1892279
1280663,1971691,1893163
1280601,1972320,1894323
1281082,1972809,1894542
1281227,1973712,1895395
1281341,1974278,1896184
1281341,1974903,1896902
1281560,1975806,1897083
1282174,1976657,1899488
1282446,1977557,1898275
1282807,1977880,1898890
1283084,1977878,1898388
1284078,1979068,1899698
1284188,1980138,1900952
1284733,1980811,1901389
1284959,1980805,1901091
1285333,1980906,1901498
1285689,1981062,1902738
1285987,1981309,1903563
1286356,1981795,1903539
1286691,1982555,1904043
1287262,1983373,1902989
1287659,1983985,1904439
1287862,1984441,1904069
1288089,1984317,1902307
1288258,1984254,1900614
1288483,1983512,1897696
1288005,1982509,1893107
1287260,1980905,1890156
1286126,1978095,1886443
1286126,1974976,1885104
1285177,1971578,1882156
1283467,1967975,1877628
1281948,1964345,1875483
1280462,1961083,1873934
1278807,1959175,1875032
1275736,1956745,1874487
1275437,1956601,1873544
1274913,1957095,1875020
1274634,1957495,1876759
1274359,1957498,1879685
1274390,1958391,1882887
1274673,1959647,1882667
1274665,1960362,1883540
1275113,1961258,1884416
1275574,1962610,1885230
1275582,1963531,1885142
1275692,1964851,1887080
1276207,1965943,1888538
1277040,1967497,1889727
1277181,1968436,1890630
1277181,1969643,1890599
1277508,1970937,1889970
1278062,1971362,1891430
1278282,1972615,1890192
1278790,1972449,1891275
1279209,1972320,1890774
1279412,1972404,1890202
1279596,1971889,1889238
1279390,1971474,1887190
1279416,1971651,1886290
1279196,1971406,1886044
1279124,1971046,1885907
1278869,1970646,1886065
1278826,1971433,1886967
1278594,1971660,1887497
1278988,1972018,1887337
1279001,1972196,1887277
1279403,1972660,1888149
1279312,1973365,1888130
1279624,1974588,1887870
1279787,1975735,1888248
1280117,1976722,1889425
1280160,1977654,1890470
1280160,1978491,1892150
1280579,1979149,1893133
1280956,1980032,1894093
1281318,1980924,1894745
1281588,1981087,1894972
1282165,1981500,1895253
1283279,1983657,1895295
1283822,1984731,1894937
1284152,1985355,1897205
1284649,1986233,1896334
1284935,1986445,1898040
1285232,1987020,1897591
1285541,1987368,1898413
1286098,1988222,1898768
1286494,1988824,1899661
1287263,1989336,1901621
1287397,1990129,1902288
1287780,1990651,1901764
1287993,1990889,1903122
1287897,1990399,1903670
1287413,1989411,1904997
1286318,1986835,1904289
1284973,1983750,1905085
1284973,1979580,1905941
1283571,1975664,1905496
1281768,1972102,1904779
1279999,1968703,1903361
1278165,1965627,1901466
1274311,1962558,1899977
1273612,1961610,1896737
1272887,1961744,1893438
1272545,1962371,1890890
1272526,1962610,1886503
1272195,1962249,1884342
1272033,1962970,1881476
1272157,1963741,1879162
1272441,1964773,1880671
1273163,1965566,1880724
1273261,1966428,1882679
1273507,1967252,1884060
1273729,1968402,1884155
1273926,1969246,1886760
1274271,1970261,1888024
1274303,1971495,1890008
1274303,1972511,1890854
1274954,1973508,1891203
1275474,1973905,1892187
1275677,1974531,1893856
1275869,1974610,1893929
1276114,1974696,1897047
1276116,1973732,1898025
1276279,1973697,1899153
1275873,1973214,1899478
1275650,1972849,1900825
1275453,1972471,1902346
1275300,1971801,1901299
1275030,1971393,1901101
1275134,1971706,1899105
1275101,1971991,1900747
1275418,1972533,1898868
1275499,1973240,1898913
1275804,1974481,1897459
1276173,1974375,1898470
1276431,1975569,1897968
1276753,1976407,1896500
1276820,1977561,1896764
1277165,1978672,1897262
1277165,1979577,1897650
1277585,1980396,1897648
1277837,1981210,1898217
1278358,1982018,1898566
1278782,1982505,1899973
1279391,1982901,1901121
1280264,1984423,1902571
1280804,1985464,1903620
1281241,1985880,1902167
1281496,1986623,1903809
1281924,1987077,1904618
1282273,1987296,1906000
1282554,1987393,1907099
1282974,1988139,1905432
1283429,1988537,1908533
1283929,1989143,1909522
1284243,1989739,1911358
1284440,1989703,1912470
1284824,1990086,1913306
1284948,1990438,1913600
1284917,1990302,1914115
1284348,1989655,1916055
1283426,1987734,1916215
1283426,1985241,1916703
1282414,1981974,1916772
1280860,1978653,1915683
1278965,1975258,1915967
1275992,1971320,1915336
1274817,1968310,1914781
1270785,1963606,1913685
1269872,1962879,1909108
1269284,1961830,1905850
1268680,1962111,1903222
1267670,1962243,1900031
1267884,1962174,1894026
1267956,1963341,1892715
1268391,1963674,1891233
1267942,1964304,1893170
1268475,1965182,1892688
1268795,1966233,1892472
1269140,1966113,1893606
1269452,1966954,1894484
1269607,1967379,1895243
1269204,1968450,1895876
1269724,1968632,1896669
1269724,1969450,1897749
1270824,1970024,1898591
1270496,1970885,1899495
1270627,1971488,1900487
1270757,1971623,1901756
1271747,1971284,1904029
1271103,1970600,1905124
1271069,1969601,1905765
1270608,1968739,1907202
1270455,1968296,1907648
1270067,1967444,1909690
1269586,1966660,1909089
1269493,1966616,1909052
1269481,1966826,1909128
1269738,1967452,1907670
1269815,1967958,1905925
1269937,1968126,1906960
1270174,1968303,1906696
1270337,1968692,1906023
1270432,1969101,1906223
1270754,1969952,1907221
1270739,1970320,1906038
1270739,1971186,1905718
1270923,1971559,1906859
1271384,1971267,1906943
1271637,1971949,1906809
1272054,1971637,1906946
1272357,1971669,1907248
1273467,1972282,1908640
1273560,1972936,1909524
1274003,1973369,1909575
1274351,1973861,1910548
1274660,1974757,1911159
1274913,1975104,1911328
1275468,1975604,1914004
1275563,1976617,1914931
1275979,1977246,1915016
1276528,1978362,1914785
1276993,1978753,1916162
1277278,1979660,1917289
1277516,1979844,1916698
1277764,1980627,1917415
1278227,1981251,1918088
1278274,1982037,1919585
1278483,1982406,1920072
1278483,1982758,1919680
1278789,1983253,1920858
1279177,1983912,1921023
1279478,1984475,1921890
1279629,1984528,1922301
1280117,1985103,1924072
1280921,1986132,1922994
1281287,1986926,1920103
1281538,1987213,1916904
1281783,1987644,1913852
1281997,1988015,1911631
1282238,1987807,1905478
1282569,1988409,1902131
1282986,1988671,1900241
1283428,1988982,1897921
1283643,1989769,1897249
1284084,1990235,1896597
1284437,1990794,1896306
1284651,1991812,1896679
1284717,1992278,1897986
1285022,1992909,1897230
1285150,1993294,1897807
1285150,1993651,1898766
1285415,1994006,1899789
1285773,1994234,1900838
1286237,1994068,1900508
1286007,1993159,1901517
1285879,1991658,1903386
1282459,1986887,1903461
1280558,1983880,1905079
1278512,1980933,1906691
1276130,1977839,1903302
1274239,1975082,1905354
1272687,1973221,1906920
1271124,1971911,1907267
1269987,1971344,1907022
1269416,1971096,1906537
1268988,1971378,1907165
1268641,1971380,1902566
1268240,1971851,1905310
1268087,1972507,1905149
1268302,1972747,1906248
1267986,1973984,1904267
1267992,1974762,1904411
1267992,1975231,1903621
1267957,1975737,1903979
1268065,1976307,1903655
1268314,1977122,1903069
1268569,1977925,1903169
1268649,1978297,1903230
1269196,1980329,1903469
1269325,1981113,1903962
1269557,1981512,1903023
1269650,1982209,1904589
1269863,1981689,1905631
1269554,1981361,1906359
1269201,1981175,1907574
1269123,1981005,1908994
1269135,1980915,1907980
1268631,1980589,1908748
1268538,1980478,1909057
1268144,1980640,1909479
1267859,1981369,1910087
1267732,1981623,1910037
1267773,1982841,1909384
1267615,1983489,1908335
1267615,1984655,1909910
1267705,1985416,1909594
1268023,1986034,1909524
1268525,1986467,1909226
1268601,1986624,1908790
1268855,1987274,1910068
1269725,1988560,1910442
1270103,1989832,1908846
1270273,1990155,1908364
1270905,1990831,1908577
1271165,1991626,1909939
1271471,1992014,1909064
1271653,1992367,1908381
1272215,1992979,1904352
1272698,1993305,1903816
1273162,1993726,1899297
1273510,1994080,1896186
1273893,1994067,1896056
1274057,1994169,1892543
1274442,1994911,1890777
1274896,1995653,1890480
1274926,1996111,1889640
1274926,1996712,1888731
1275199,1996989,1889601
1275496,1997292,1890050
1275957,1997474,1890318
1276243,1997598,1890723
1276714,1997270,1890032
1277246,1998362,1890938
1277572,1999182,1890443
1277915,1999525,1890334
1278348,1999651,1892791
1278440,1999773,1892855
1278548,1999868,1894724
1278664,1999977,1895937
1278953,2000476,1896915
1279517,2001024,1898542
1279934,2001961,1900321
1280403,2002592,1901218
1280778,2002937,1902025
1280883,2003372,1901966
1281020,2003659,1903300
1281748,2003984,1903276
1281703,2004696,1902435
1281633,2004666,1902053
1281633,2004487,1903238
1281649,2003601,1901823
1281453,2002517,1902344
1280945,2000686,1901397
1280135,1998315,1902148
1278791,1995873,1901831
1274346,1991595,1902113
1272854,1990404,1902250
1271692,1989984,1902880
1270806,1989227,1902357
1270169,1988574,1902965
1269858,1988207,1904219
1269639,1988753,1905643
1269558,1989099,1904926
1269792,1989626,1905560
1269677,1989705,1906371
1269865,1989966,1905642
1269748,1990227,1906430
1270143,1990952,1907494
1270006,1991036,1908723
1270282,1991654,1908084
1270271,1991650,1908360
1270271,1992427,1908755
1270520,1992141,1909304
1270657,1992214,1909077
1271160,1992578,1910103
1271029,1992981,1910027
1271303,1992738,1911995
1271780,1992907,1911222
1271651,1993031,1913349
1271661,1992237,1912184
1271613,1991979,1911898
1271261,1991562,1912492
1270909,1990975,1914213
1270717,1989945,1914063
1270502,1990624,1914841
1270456,1990852,1914866
1270521,1991052,1915431
1270403,1991324,1915296
1270327,1991727,1914732
1270329,1991468,1916277
1270480,1992610,1916051
1270559,1993015,1917269
1270781,1993478,1918896
1270781,1993892,1918719
1270943,1994236,1919468
1271151,1994415,1919273
1271576,1994796,1919152
1272103,1995566,1919311
1272324,1995651,1918825
1272833,1996555,1918428
1273107,1997377,1917396
1273634,1997682,1917725
1272951,1998328,1916267
1274191,1998600,1913970
1274543,1998811,1911692
1274748,1998993,1911150
1275290,1999887,1910490
1275626,2000398,1908077
1275988,2001411,1907625
1276477,2001428,1907471
1276769,2001470,1906292
1277188,2001578,1907677
1277271,2002104,1907916
1277507,2002451,1907231
1277747,2002824,1907694
1277645,2002669,1908014
1277645,2002681,1908177
1278102,2003067,1908963
1278581,2003016,1910271
1278928,2004175,1911363
1279037,2003654,1911611
1279280,2003851,1912199
1279948,2004593,1912797
1280186,2005344,1913704
1280497,2005318,1914253
1280653,2005648,1914631
1281074,2006269,1913790
1281214,2005948,1915747
1281537,2006498,1915586
1281762,2006860,1918248
1282126,2006843,1916824
1282475,2006766,1916183
1282313,2006693,1914651
1282228,2005113,1915387
1281225,2003356,1913616
1280295,2001701,1913144
1279049,2000177,1913372
1277600,1998472,1913512
1276020,1996935,1913954
1276020,1995634,1913636
1275039,1994641,1912690
1274124,1994423,1913616
1273410,1993770,1913731
1272773,1993620,1913247
1272071,1993655,1913248
1271862,1994480,1914564
1271861,1994621,1914878
1271919,1995478,1916414
1272106,1996011,1916311
1272166,1995990,1916659
1272218,1995230,1916431
1272299,1995720,1918931
1272402,1995654,1919877
1272854,1996211,1919084
1273105,1996208,1919609
1273197,1996017,1920748
1273335,1996370,1920318
1273661,1996549,1920454
1273922,1996844,1921245
1273926,1997254,1922740
1273754,1997197,1923438
1273754,1996855,1924322
1273923,1997134,1925849
1273754,1995934,1925739
1273583,1996202,1925935
1273616,1995958,1926620
1273286,1995307,1927504
1272710,1995460,1926732
1272667,1995413,1927690
1272569,1995802,1928051
1272877,1996469,1928972
1272805,1996471,1928048
1272845,1996650,1929163
1272932,1996952,1929742
1273090,1997193,1931709
1273644,1997462,1932029
1273604,1997578,1931722
1274094,1997553,1932822
1274289,1997875,1931936
1274532,1997521,1932259
1274744,1998317,1932556
1275170,1998661,1932999
1275133,1999142,1932694
1275133,1999373,1929623
1275547,1999932,1928929
1275736,1999903,1927645
1276155,2000161,1927477
1276359,2000283,1925554
1276514,2000398,1924383
1277404,2001084,1923358
1277783,2001900,1923226
1278074,2001369,1922095
1278129,2002217,1922657
1278502,2002024,1922919
1278947,2002236,1922881
1278950,2001750,1924262
1279192,2002295,1922674
1279476,2002396,1923575
1280043,2003029,1924357
1280280,2002991,1924357
1280584,2003360,1924105
1280697,2003644,1923801
1281063,2004144,1924745
1281122,2004813,1924852
1281402,2004694,1924936
1281402,2005105,1922972
1281485,2004912,1925995
1281807,2004887,1927679
1282018,2005589,1928585
1282330,2005842,1928974
1282491,2005601,1929059
1282819,2005967,1928074
1283739,2006861,1929242
1284012,2007435,1929998
1284342,2008134,1930663
1284586,2008342,1930188
1284769,2007920,1929800
1284740,2007132,1927326
1284263,2006095,1930576
1284132,2003933,1932114
1283440,2002681,1932082
1282546,2000805,1932243
1281185,1998862,1931930
1280070,1997435,1930824
1278922,1996519,1931051
1277866,1995954,1931698
1277195,1996392,1930998
1276378,1996222,1930718
1276378,1996016,1931368
1275945,1996180,1930670
1275762,1996509,1932256
1275685,1996803,1931558
1275682,1997245,1932033
1275681,1996933,1932490
1275899,1997826,1933036
1275902,1998387,1932136
1276110,1998600,1931887
1276256,1998826,1933089
1276485,1998901,1933047
1276498,1998475,1931991
1276638,1999198,1932420
1276918,1999236,1931321
1277209,1999709,1932175
1277384,1999767,1932067
1277571,1999660,1932806
1277880,1999526,1932246
1277797,1999680,1933653
1277781,1999648,1929973
1277863,2000004,1931296
1277434,1999479,1932124
1276978,1999351,1932027
1276978,1999413,1932404
1277300,1999084,1932032
1277334,1998676,1932492
1276765,1998598,1932121
1276953,1998269,1932844
1276772,1998587,1930995
1277145,1998645,1931426
1277046,1999068,1930700
1277293,1999375,1931711
1277376,1999673,1931245
1277597,1999927,1929742
1277860,1999868,1928530
1278183,2000286,1928125
1278560,2000664,1926966
1278705,2001128,1925735
1278898,2001381,1925012
1279360,2001364,1923768
1279372,2001974,1924061
1279854,2002616,1924100
1280074,2002014,1923304
1280175,2003314,1923811
1281135,2003761,1924713
1281135,2004346,1923035
1280901,2004565,1923866
1281025,2004810,1924447
1281421,2004990,1924912
1281514,2005108,1924702
1281619,2005125,1925581
1283386,2005339,1925232
1283005,2006098,1926285
1283080,2006188,1925749
1283443,2006645,1927632
1284113,2006615,1928928
1283955,2006613,1929103
1283932,2006949,1928602
1284435,2007250,1930029
1284854,2007240,1929536
1285124,2007714,1930173
1285256,2007603,1929884
1285680,2007685,1928459
1285897,2007867,1928627
1286001,2008106,1929567
1286214,2008970,1929132
1286444,2009104,1929325
1286444,2009056,1930677
1286332,2008987,1929831
1286619,2008851,1928696
1286926,2009322,1928945
1287068,2009327,1927870
1287365,2008863,1929410
1287493,2009343,1931136
1288212,2009738,1929591
1288352,2009682,1930783
1288226,2009031,1930319
1287860,2007342,1931088
1287129,2005112,1929414
1286191,2002946,1929612
1285018,2001454,1930668
1284043,1999778,1930747
1282961,1998622,1932167
1281904,1999060,1931885
1281095,1997612,1931742
1280493,1996927,1931532
1280228,1997330,1931123
1279868,1997651,1931916
1279430,1997995,1932309
1279430,1998198,1932978
1279402,1998187,1933143
1279439,1998635,1935872
1279329,1998738,1935340
1279611,1999309,1934205
1279529,1999150,1936276
1279840,1999179,1936931
1280218,1999535,1935348
1280004,1999858,1935482
1280481,1999816,1936837
1280557,2000432,1936222
1280627,1999806,1937917
1280449,1999389,1937105
1280886,1999343,1936401
1280935,1999271,1934885
1281179,1999046,1933288
1281051,1998340,1932613
1280873,1997879,1932116
1280909,1997453,1931653
