GREEN,RED,IR
1356163,652716,1157738
1356059,652797,1157920
1356438,652925,1158570
1356409,652877,1158570
1356348,652850,1159098
1356306,652577,1158477
1356333,652544,1158057
1356311,652398,1158019
1356214,652353,1157449
1356046,652272,1156967
1355906,652061,1156452
1355906,651931,1155492
1355968,652072,1154962
1355914,652236,1154689
1356005,652354,1155057
1356063,652375,1154920
1355538,652306,1154520
1355644,652472,1154312
1355610,652223,1154483
1355807,652056,1154751
1355732,651785,1155178
1355707,651655,1155533
1355604,651493,1155947
1355743,651538,1156432
1355814,651452,1156630
1355943,651501,1156718
1355934,651310,1157321
1355825,651061,1157960
1355819,650867,1157787
1355749,650717,1158191
1355892,650680,1158256
1355702,650703,1158794
1355534,650847,1159968
1355534,650884,1161651
1355617,650863,1162497
1355561,651064,1162399
1355700,651297,1162301
1355714,651533,1162216
1355776,651545,1162396
1355596,651489,1163295
1355527,651361,1164765
1355486,651158,1165560
1355766,651028,1165252
1355677,650947,1164636
1355698,650642,1163772
1355407,650595,1163119
1355814,650666,1162982
1355462,650468,1163070
1355998,650359,1164175
1355926,650286,1164817
1355874,650212,1165847
1355538,650377,1166946
1355951,650376,1168095
1355836,650225,1168726
1355535,649763,1168573
1355535,649245,1168445
1355310,648826,1168378
1355487,648464,1168517
1355585,648219,1168537
1355698,647849,1168522
1355654,647627,1169060
1355604,647630,1169039
1355449,647891,1169043
1355540,648017,1169134
1355539,648092,1169713
1355652,647966,1169387
1355437,647526,1168732
1355592,647027,1167291
1355617,646758,1165613
1355665,646455,1164264
1355851,646078,1163255
1356040,645905,1162653
1355902,645666,1162226
1355861,645701,1161384
1355835,645357,1161316
1355984,644996,1161088
1355665,644970,1160837
1355651,644852,1160676
1355651,644782,1160752
1355395,644916,1160587
1355585,645263,1160852
1355434,645373,1162169
1355487,645417,1163204
1355374,645246,1162499
1355089,644747,1161837
1355146,644562,1160834
1355398,644376,1159800
1355255,644311,1159375
1355368,644201,1159286
1355277,644163,1159909
1355182,644168,1161006
1355315,644435,1160996
1355521,644681,1160116
1355535,645174,1158313
1355710,645434,1158216
1355617,645791,1159014
1355479,645843,1159806
1355240,645955,1161075
1355584,645813,1162182
1355225,645907,1162760
1355080,645801,1162434
1355080,645457,1161527
1354855,645057,1161652
1354928,644744,1162482
1354864,644601,1164085
1355036,644340,1165448
1355038,644256,1166602
1354969,644776,1166601
1354895,645358,1164875
1355016,645808,1163767
1354820,646355,1163501
1354825,646414,1163117
1354566,646592,1162982
1354555,646527,1163715
1354631,646473,1164389
1354906,646340,1164600
1354897,646218,1163010
1355080,646202,1161946
1354840,646110,1160782
1354732,645906,1160749
1354523,645668,1160891
1354909,645241,1160694
1354629,644967,1161431
1354559,644628,1161708
1354559,644486,1161537
1354571,644173,1161164
1354792,644319,1161362
1354643,644354,1162426
1354801,644577,1163043
1354633,644764,1163140
1354778,645667,1163861
1354785,646554,1164885
1354788,647280,1165370
1354735,648233,1165924
1354826,649206,1167387
1354711,650121,1168843
1354832,651171,1169829
1354722,652258,1170414
1355171,653163,1170013
1355143,653596,1169076
1355107,653369,1168407
1355126,653147,1168552
1355361,652863,1168778
1355327,652610,1169619
1355473,652547,1170344
1355199,652542,1170977
1355199,652694,1171363
1354998,652869,1172215
1355226,652941,1173169
1355303,652959,1174101
1355484,652817,1174170
1355557,652326,1174055
1355427,651780,1174248
1355581,651161,1174995
1355750,650997,1176246
1355608,651072,1177644
1355524,651017,1178053
1355597,650571,1178072
1355474,650128,1178106
1355728,649575,1177625
1355573,649101,1175734
1355957,648653,1174600
1355933,648357,1173001
1355695,648297,1170722
1355766,648238,1168742
1356176,648704,1167298
1356085,649321,1166591
1355940,649768,1166616
1355623,650077,1166435
1355730,650425,1166179
1355730,650851,1166018
1355822,651337,1166040
1355796,651737,1166309
1355922,651758,1165659
1355985,652004,1164563
1355700,652249,1163626
1355974,652463,1163836
1355838,652584,1164145
1355882,652504,1163984
1355818,652377,1163130
1355755,652273,1162730
1355439,652274,1162147
1355709,652090,1161350
1355897,652027,1161163
1356068,651863,1161724
1356221,651817,1161491
1356160,651848,1161143
1355808,651995,1160768
1355881,652207,1159544
1355903,652567,1158175
1355732,653048,1156701
1355732,653245,1156312
1355770,653226,1156504
1355795,653211,1156737
1355813,653013,1156630
1355766,652906,1156678
1355653,652418,1157049
1355732,652316,1156924
1355806,652380,1156219
1355860,652598,1156253
1355959,652796,1155545
1355925,653097,1154094
1355925,653347,1152573
1355779,653247,1151173
1355943,653224,1151246
1355898,652804,1152839
1356283,652721,1153979
1356349,652610,1154841
1356242,652552,1155277
1356135,652695,1154998
1356189,653082,1154607
1356121,653369,1154420
1356333,653822,1154558
1355976,654291,1154774
1355976,654331,1155421
1356057,654282,1156715
1355921,653958,1157590
1356028,653616,1158483
1356145,653133,1159586
1356211,652587,1160517
1356200,652477,1160770
1356308,652623,1160040
1356238,652644,1159594
1356355,652807,1159443
1356246,652862,1159221
1356325,652663,1159348
1356111,652391,1159564
1356273,652191,1159632
1356226,651841,1159557
1356637,651759,1159898
1356619,651653,1159673
1356363,651535,1159740
1356355,651637,1159623
1356634,651643,1159180
1356596,651875,1158101
1356468,652347,1157453
1356293,652823,1157085
1356293,653444,1157055
1356355,654040,1156405
1356411,654638,1155506
1356657,655126,1154461
1356568,655161,1153603
1356728,654924,1153231
1356601,654305,1153178
1356809,654012,1153446
1356737,653689,1152551
1356763,653429,1151259
1356764,653178,1150019
1356633,652974,1148810
1356469,652390,1147967
1356685,651670,1147189
1356780,651148,1147849
1356995,650612,1148235
1356731,650170,1148876
1356717,649609,1149351
1356423,648993,1150093
1356868,648706,1150235
1356678,648166,1149901
1356414,647667,1149376
1356414,647201,1149106
1356191,646783,1148965
1356219,646419,1148762
1355968,646185,1148658
1356201,646013,1148896
1356085,645392,1149032
1356032,645196,1149881
1356033,644505,1151169
1355890,644144,1152085
1355918,643854,1152592
1355952,643684,1151631
1355797,643446,1149802
1356000,643192,1148690
1355943,642968,1148716
1355947,642573,1149411
1355986,642257,1150125
1356237,641832,1150491
1355942,641436,1150598
1356262,641292,1150432
1355944,641256,1150507
1356169,641360,1150990
1355734,641267,1151378
1355618,640973,1151970
1355618,641070,1152351
1355710,640856,1152889
1355693,640826,1153805
1355652,640765,1154528
1355594,640633,1154833
1355506,640433,1154586
1355356,640526,1155075
1355352,640423,1154924
1355369,640239,1154279
1355393,640111,1154129
1355358,639854,1154640
1355208,639496,1154893
1355069,639476,1155461
1355169,639397,1155852
1355257,639281,1155350
1355465,639156,1154780
1355416,638894,1154544
1355319,638466,1154479
1355329,638175,1154600
1355384,638086,1154936
1355393,637844,1155321
1355123,637906,1155453
1354916,637869,1156145
1354916,638004,1157087
1354549,637953,1158234
1354850,638208,1158842
1354805,637912,1158840
1354861,637423,1159999
1354793,637169,1161182
1354604,636827,1162183
1354761,637131,1162152
1355029,636841,1162388
1354821,637023,1163193
1354792,637019,1164394
1354651,637115,1165899
1354585,637289,1166417
1354616,637204,1166588
1354864,636991,1166966
1354878,636776,1167410
1355015,636489,1167954
1354816,636092,1168850
1355087,635945,1169730
1354859,636029,1170288
1355017,636048,1170885
1354631,636397,1171983
1354614,636441,1173215
1354614,636261,1174704
1354585,635982,1176101
1354608,635865,1177657
1354560,635648,1179851
1354601,635563,1181549
1354409,635465,1183525
1354581,635736,1183137
1354551,636124,1182042
1354880,636496,1181089
1354561,636823,1179856
1354814,637028,1178675
1354608,636929,1176883
1354504,636828,1175706
1354542,636522,1174794
1354855,636252,1173263
1354855,635861,1172176
1354894,635547,1171218
1354746,635275,1171071
1354813,635318,1171286
1354690,635580,1171787
1354457,635947,1172415
1354255,636143,1172689
1354255,636417,1173578
1354370,636507,1173723
1354315,636440,1172165
1354416,636365,1170474
1354316,635876,1169281
1354360,635455,1168296
1354142,635319,1166297
1354353,635212,1163860
1354349,635685,1161023
1354272,635832,1159747
1354092,636219,1158903
1353995,636482,1158291
1353672,637144,1156903
1353875,637352,1156092
1353993,637298,1155667
1354104,637290,1154595
1354091,637271,1153595
1353876,637257,1153004
1353932,637263,1153221
1353966,636702,1153100
1353660,636350,1152440
1353662,635971,1151982
1353446,635588,1151875
1353446,635454,1152965
1353605,635428,1156967
1353553,635612,1155459
1353656,635960,1153391
1353467,636473,1153917
1353514,637089,1153641
1353516,638742,1152546
1353529,639102,1152374
1353454,639128,1151972
1353676,638697,1151831
1353346,638328,1152117
1353392,637685,1152983
1353230,637348,1153940
1353358,636918,1155970
1353149,636620,1156951
1353766,636470,1157796
1353672,636487,1158079
1353448,636441,1157978
1353198,636851,1157428
1353360,637357,1157252
1353397,637855,1157182
1353223,638491,1157233
1353025,639042,1157744
1353025,639677,1158347
1353195,640038,1159228
1353199,640334,1159647
1353305,640300,1160185
1353304,640511,1160321
1353077,640516,1161058
1353432,640967,1162076
1353340,641508,1162823
1353483,642069,1163589
1353496,642791,1163575
1353577,643577,1163046
1353539,644485,1163215
1353409,645239,1163802
1353673,645912,1163655
1354089,646229,1162960
1354121,646619,1162958
1354175,646993,1162860
1353926,647050,1162760
1353827,646828,1162239
1353987,646551,1161348
1354064,646235,1160780
1353937,646088,1159410
1353940,645870,1158524
1353940,645666,1158480
1353962,645777,1158102
1354252,645962,1157898
1354161,645958,1157876
1354227,645637,1157105
1354173,645061,1156291
1354371,644981,1155092
1354153,645002,1154419
1354467,645085,1154704
1354398,645536,1155000
1354740,645939,1156277
1354482,646666,1155815
1354506,647246,1155349
1354497,647642,1154480
1354725,647800,1153648
1354938,647744,1153305
1355008,647408,1153728
1354696,647163,1154265
1354850,646792,1154607
1354652,646523,1154469
1354936,646247,1154216
1354667,646003,1154342
1354667,645496,1154317
1354734,645229,1154186
1354516,644866,1154429
1354882,644609,1154631
1354930,644282,1154831
1354841,643950,1154485
1354666,643962,1154575
1354580,643898,1154927
1354511,643899,1155984
1354738,643925,1156472
1354487,644286,1156641
1354666,644516,1156325
1354407,644937,1156480
1354598,645535,1156872
1354430,646004,1157598
1354719,646095,1158630
1354791,646145,1159608
1354574,646027,1160973
1354634,645503,1162222
1354721,645145,1163462
1354219,644912,1164833
1354705,644740,1166855
1354312,644915,1168777
1354312,644968,1169886
1354450,645262,1170309
1354360,645522,1169673
1354438,645872,1168896
1354422,646065,1168227
1354259,646194,1167492
1354361,645978,1166949
1354322,646078,1166507
1354319,646129,1166891
1354495,645995,1167120
1354470,646090,1167822
1354508,646025,1167408
1354345,646095,1166863
1354612,646369,1165359
1354766,646625,1164267
1355160,646869,1163342
1354919,646891,1162495
1354932,646776,1162213
1354882,646471,1162521
1354957,646071,1162482
1354880,645783,1162881
1354856,645776,1162629
1354561,645910,1162592
1354561,645883,1162522
1354837,646068,1163032
1354768,646316,1164513
1354973,646515,1166351
1354746,646446,1168548
1354979,646365,1169457
1354805,646338,1168153
1354832,646400,1166710
1354820,646237,1165840
1354946,646296,1164866
1354707,646282,1164603
1354660,646552,1165022
1354685,646806,1164793
1354871,647212,1165000
1354808,647121,1164982
1355233,646934,1164860
1355167,646586,1164665
1355128,646052,1164963
1355063,645833,1165048
1355235,645699,1164969
1355028,645758,1165049
1354975,645828,1165252
1354820,645901,1165479
1354820,645909,1165474
1354738,645998,1165543
1354796,646025,1166282
1354948,645872,1167479
1354913,645515,1167926
1354922,645494,1167162
1354898,645227,1166300
1355095,645403,1166077
1354912,645599,1166846
1354986,645924,1167113
1354977,646046,1165783
1354975,646120,1164535
1354878,646245,1162689
1355037,646702,1162128
1355269,646918,1162054
1355531,647010,1162386
1355262,647165,1163282
1355200,647068,1163657
1355430,647396,1163827
1355543,647898,1164482
1355433,648473,1164037
1355429,649036,1163553
1355429,649400,1162269
1355316,649814,1161761
1355444,649847,1161178
1355251,649763,1161044
1355496,649423,1160898
1355414,649031,1160875
1355566,648616,1160990
1355256,648829,1161428
1355470,648659,1161351
1355576,648865,1160664
1355551,649071,1160090
1355415,649075,1160053
1355356,649330,1160468
1355427,649630,1160628
1355638,649898,1161348
1355889,649931,1161628
1355894,649526,1161731
1355718,649004,1161327
1355829,648689,1160528
1355683,648670,1159469
1355536,648662,1158212
1355557,648882,1157006
1355518,648928,1156094
1355518,649037,1155084
1355540,649100,1154039
1355648,649556,1153307
1355616,649952,1151835
1355614,649847,1150050
1355428,650018,1148599
1355611,650008,1147597
1355442,649797,1146450
1355611,649409,1146557
1355598,649188,1147505
1355620,649025,1147952
1355592,648842,1147565
1355614,649043,1146710
1355764,649364,1146799
1355773,649518,1147143
1355991,650079,1148050
1356224,650428,1149214
1355971,650803,1150601
1355947,651060,1151298
1356030,651149,1151906
1356227,651201,1151793
1356132,651187,1151639
1355956,651096,1151375
1355956,651177,1151413
1355714,651289,1151281
1355908,651622,1152166
1355952,651655,1153121
1356141,651587,1153750
1355934,651825,1153915
1355981,652577,1154370
1356079,653104,1154120
1356176,653712,1153437
1356285,654331,1152050
1356341,654364,1152050
1356325,653965,1151980
1355981,653554,1152136
1356401,653191,1152603
1356460,653059,1152991
1356843,653004,1153514
1356769,652888,1153512
1356580,652898,1153074
1356404,652890,1152564
1356603,652760,1152486
1356685,652380,1152720
1356730,652252,1153430
1356730,652014,1153671
1356430,651761,1154131
1356709,651800,1155071
1356668,651944,1156705
1356627,652176,1157384
1356693,652270,1157147
1356798,652455,1156800
1356879,652849,1156470
1356877,652739,1156049
1356961,652471,1155747
1357044,652321,1155857
1357021,651935,1156919
1356982,651520,1157769
1356923,651414,1158516
1357187,651176,1158330
1356980,651126,1157722
1357406,651226,1156756
1357487,651531,1156156
1357449,651959,1156286
1357216,652473,1156544
1357570,652825,1156860
1357599,652952,1156888
1357480,652879,1156366
1357033,652749,1155962
1357033,652460,1155399
1357361,652407,1154759
1357225,652433,1153638
1357347,652407,1152907
1357457,652384,1152389
1357509,652410,1152540
1357551,652124,1152432
1357710,651818,1151853
1357619,651288,1151081
1357827,650743,1150217
1357519,650520,1149836
1357560,650298,1150636
1357439,650154,1151331
1357767,650094,1152131
1357796,650003,1152719
1357980,650224,1152844
1357982,650450,1152680
1357986,650631,1152268
1357662,651076,1151654
1357912,651531,1151603
1357742,651244,1151537
1357777,650959,1150774
1357777,650420,1149816
1357473,650070,1149706
1357609,649870,1150170
1357713,650059,1150555
1357812,650044,1150904
1357798,650178,1151243
1357786,650238,1151329
1357629,649992,1150565
1357629,649861,1149736
1357651,649732,1149522
1357713,649503,1148849
1357657,649313,1148324
1357711,649226,1148111
1357426,649308,1148180
1357651,649126,1148291
1357810,649003,1148460
1358189,648589,1147910
1357987,648281,1147160
1358038,647804,1146353
1357893,647675,1146182
1357997,647343,1145747
1357850,647468,1145399
1357721,647383,1144872
1357721,647244,1144217
1357399,647204,1143416
1357736,647141,1143417
1357692,647035,1143173
1357636,646949,1142403
1357512,646510,1141964
1357661,646453,1142363
1357635,646390,1142833
1357708,646512,1142355
1357631,646678,1142061
1357670,646860,1141715
1357654,646926,1141364
1357603,646857,1141135
1357510,646885,1141244
1357618,646789,1141031
1357651,646823,1140059
1357836,646845,1139050
1357742,646739,1138603
1357795,646518,1138534
1357790,646553,1138559
1357836,646732,1138653
1357787,646955,1137823
1357573,646992,1136983
1357573,646877,1137235
1357436,646628,1137686
1357620,646516,1138402
1357455,646588,1138703
1357657,646496,1139470
1357521,646422,1139840
1357620,646638,1140736
1357579,646919,1143422
1357619,647013,1143422
1357422,647114,1144171
1357689,646973,1145022
1357724,646868,1145614
1357441,646595,1145722
1357400,646671,1145368
1357803,646535,1145018
1357916,646732,1144835
1358297,646986,1144000
1357863,647066,1143035
1358084,647257,1141883
1357953,647449,1140569
1358137,647366,1139515
1357861,647389,1139631
1357846,647322,1140730
1357698,647116,1142417
1357698,646992,1144308
1357748,647002,1146002
1357794,647361,1146928
1358013,647711,1147851
1357973,647831,1148391
1357857,648183,1147834
1357909,647492,1148069
1358002,647337,1147710
1357888,647024,1147450
1357998,646867,1147370
1358033,646706,1146843
1358051,646510,1146658
1358116,646518,1146869
1358145,646271,1146488
1358384,645895,1145777
1358602,645509,1146096
1358473,645309,1146631
1358484,645093,1146917
1358358,645089,1147154
1358567,645189,1146962
1358470,645413,1146755
1358198,645303,1146610
1358198,645121,1146656
1358258,645050,1146799
1358258,645024,1146841
1358174,645041,1146678
1358302,644760,1146625
1358177,644659,1146996
1358218,644775,1147601
1358240,644869,1149100
1358237,644979,1150248
1358169,645188,1151556
1358358,645226,1153209
1358178,645156,1154744
1358159,644956,1155157
1358157,644854,1154599
1358419,644619,1154239
1358617,644577,1153848
1358506,644674,1153309
1358366,644749,1152837
1358278,645051,1152808
1358369,644989,1153174
1358205,644982,1153728
1358232,645059,1153585
1358232,644976,1153371
1358013,645116,1152998
1358257,644896,1152655
1358282,645077,1152806
1358192,645079,1152365
1358162,645229,1151818
1358341,645488,1151483
1358411,646195,1151351
1358655,646168,1152091
1358449,646096,1152242
1358576,645800,1151886
1358655,645327,1151725
1358503,644959,1151896
1358375,644920,1152254
1358553,644872,1152228
1358786,645020,1153147
1359053,645020,1153909
1358961,644980,1154302
1358984,644676,1154742
1358694,644450,1154234
1359135,644356,1153626
1359059,644240,1152952
1359010,644172,1152882
1359010,644001,1153237
1358878,644107,1153567
1358908,644088,1154079
1358919,644395,1155201
1358976,644627,1156004
1359031,644950,1157724
1358900,645193,1160960
1358969,645444,1161320
1359023,645284,1160781
1358933,645000,1159855
1358918,644830,1159551
1358978,644724,1159314
1359002,644804,1159710
1358999,644695,1159749
1359014,644721,1159898
1359254,644697,1160106
1359373,644524,1160790
1359205,644386,1161207
1359315,644273,1161437
1359207,644322,1161378
1359427,644196,1161509
1359252,644184,1161771
1359011,644064,1161799
1359011,643936,1161469
1359019,643856,1160587
1359145,643883,1159996
1359049,643843,1160401
1359195,643634,1161263
1359229,643606,1161469
1359295,643597,1162042
1359023,643748,1162598
1359066,643597,1163324
1359153,643371,1164320
1359215,643076,1165445
1359257,642793,1166383
1359276,642667,1167638
1359392,642670,1168189
1359496,642556,1167901
1359979,642384,1167570
1359894,642309,1167510
1359755,642018,1167259
1359957,641870,1167358
1359628,641783,1167344
1359831,641679,1168066
1359855,641824,1168617
1359695,642076,1169152
1359695,642235,1169995
1359822,642237,1170798
1359949,642391,1170081
1359691,642554,1169742
1359875,642446,1168719
1359976,642135,1167792
1359905,641686,1167249
1359691,641650,1168013
1359899,641448,1168197
1359856,641586,1168639
1360000,641457,1169055
1359623,641393,1169935
1359761,641304,1171016
1359651,641160,1172658
1359681,640894,1174245
1360104,640785,1176352
1360309,640709,1177934
1359903,640567,1178271
1359956,640739,1177687
1359623,640751,1177501
1359801,640759,1177374
1359713,640913,1177222
1359564,640884,1177223
1359564,640643,1177162
1359595,640523,1176905
1359562,640423,1177344
1359680,640174,1177449
1359768,640012,1177711
1359743,639823,1177233
1359850,639936,1176633
1359836,639799,1175962
1359990,639938,1175466
1359920,640100,1175490
1359809,640009,1175737
1359866,639822,1175787
1359957,639588,1175351
1359860,639485,1175104
1360130,639311,1174356
1360257,639225,1173834
1360460,639081,1173132
1360120,638931,1172887
1360418,639110,1172535
1360100,639474,1172255
1360517,639592,1172297
1360332,640054,1171754
1360058,640332,1172047
1360058,640725,1171729
1360152,641266,1172040
1360374,641563,1172706
1359998,641287,1172882
1360162,641159,1172426
1360251,641101,1171882
1360241,641273,1171758
1360135,641161,1171283
1360365,640965,1171018
1360155,641244,1170974
1360388,640987,1171141
1360241,640641,1171360
1360295,640302,1171909
1360276,640071,1171827
1360430,639934,1170955
1360717,639668,1170548
1360764,639608,1170393
1360787,639513,1170530
1360574,639439,1170291
1360481,639640,1170754
1360439,639513,1171180
1360364,639530,1171143
1360469,639102,1170013
1360469,639173,1169167
1360263,639186,1168202
1360389,639246,1168201
1360478,639110,1167906
1360577,638928,1168335
1360372,638743,1168173
1360514,638496,1168376
1360410,638681,1167713
1360438,638411,1167572
1360451,638626,1167169
1360728,638503,1167132
1360570,638326,1167531
1360622,638230,1167833
1360902,638227,1168207
1361123,638156,1168699
1361309,638322,1168939
1361160,638433,1170022
1361104,638537,1170047
1361154,638647,1169606
1361173,638695,1168853
1361262,638649,1168939
1360877,638619,1169205
1361016,638521,1169035
1361016,638286,1168576
1360960,638209,1168478
1361189,638285,1168776
1361098,638237,1168979
1361173,638099,1169304
1360972,638098,1169372
1361040,638041,1169308
1360937,638326,1168556
1361095,638530,1168252
1360977,638850,1168178
1361027,639099,1168195
1360943,639578,1168215
1361116,640379,1167817
1361142,640944,1167922
1361438,641383,1167805
1361443,641542,1167763
1361262,641604,1167928
1361222,641851,1167395
1361593,642320,1166944
1361684,642784,1167233
1361354,643227,1168126
1361154,643461,1168730
1361154,643516,1168689
1361205,643607,1168571
1361487,643642,1168031
1361476,643699,1167558
1361358,643517,1167429
1361519,643589,1167718
1361582,643860,1168661
1361612,644042,1168938
1361522,643711,1169516
1361809,643595,1170035
1361768,643394,1170211
1361716,643007,1170354
1361688,642849,1170525
1361886,642619,1170496
1361865,642682,1170522
1362212,642756,1170592
1362176,642902,1170903
1362263,642961,1170875
1362337,643382,1170564
1362298,643671,1170022
1362327,643668,1169663
1362090,643587,1169575
1361997,643314,1169600
1361997,643277,1169929
1361959,643171,1170363
1361915,643277,1171185
1362186,643388,1171357
1362216,643569,1170546
1362220,643821,1169962
1362032,643875,1169879
1362118,643844,1169267
1362181,643639,1169090
1362074,643614,1169097
1362072,643505,1169371
1362083,643506,1169057
1362182,643416,1168987
1362148,643524,1168464
1362305,643636,1168055
1362667,643794,1168193
1362786,643792,1168836
1362463,643721,1168491
1362651,643749,1168489
1362558,643802,1168770
1362879,643859,1169051
1362625,643987,1169187
1362454,643938,1169162
1362454,643696,1169466
1362561,643376,1170359
1362570,643077,1171261
1362607,642882,1173448
1362582,642667,1174165
1362567,642680,1175501
1362661,643205,1175802
1362575,643742,1176125
1362764,644069,1176299
1362725,644380,1176402
1362674,644317,1176221
1362583,644095,1175890
1362508,644162,1175310
1362686,644138,1174814
1362831,644013,1174468
1362972,644101,1174216
1363056,644152,1175000
1363095,644320,1175005
1363043,644474,1175151
1363091,644887,1175177
1363299,645070,1176039
1362862,645553,1176456
1362862,645446,1176016
1363027,645182,1175788
1362977,644942,1175222
1363140,644665,1174795
1363192,644319,1174413
1363406,643989,1174961
1363158,644056,1175565
1363361,644200,1176138
1363045,644222,1176862
1363198,644088,1177234
1363139,643876,1177167
1363159,643526,1176912
1362884,643292,1176665
1363219,643373,1175612
1363206,643638,1174660
1363700,643799,1174042
1363658,644224,1174210
1363628,644692,1173844
1363592,645305,1173254
1363658,645794,1173175
1363487,645836,1173508
1363485,645682,1173041
1363140,645312,1172429
1363140,644862,1172152
1363468,644578,1172335
1363238,644336,1172530
1363541,644481,1172665
1363405,644169,1170804
1363443,643599,1170330
1363478,643079,1169680
1363645,643138,1169011
1363528,643295,1168851
1363701,643321,1169302
1363661,643622,1169652
1363712,643788,1169688
1363495,643872,1169230
1363669,643827,1168878
1363550,643682,1168841
1363827,643484,1168555
1363653,643122,1168422
1363849,643039,1168098
1363682,642853,1168250
1363931,642959,1168215
1363626,643097,1168364
1363611,643205,1168315
1363611,642863,1168554
1362988,642434,1169351
1362976,642187,1170465
1362365,641995,1171752
1362458,641902,1171425
1362270,641849,1171308
1361986,642528,1171778
1361705,642873,1171923
1361918,643224,1172029
1361683,643454,1172030
1361818,643451,1172501
1361749,643212,1173436
1361595,642665,1173753
1361385,642507,1174347
1361512,642155,1175112
1361628,642126,1176164
1361813,642071,1176729
1361568,642082,1176246
1361692,642102,1175321
1361662,642433,1173822
1361749,642360,1172458
1361607,642522,1171614
1361356,642314,1170208
1361356,642161,1169385
1361282,642078,1168732
1361491,642177,1167643
1361331,642216,1165140
1361311,642242,1164255
1361336,642153,1163491
1361212,642230,1162503
1361069,642270,1162246
1361237,642045,1161891
1361115,641802,1161533
1361340,641713,1161621
1361151,641437,1161710
1361168,641291,1161889
1361296,641318,1162399
1361434,641356,1163440
1361591,641625,1164575
1361800,641648,1164658
1361559,641752,1164187
1361657,641661,1163541
1361660,641724,1163396
1362045,641793,1164009
1361666,642165,1164205
1361483,642292,1163958
1361483,642202,1164132
1361493,642237,1163654
1361529,642268,1163265
1361611,642267,1162292
1361609,642154,1161748
1361568,641867,1161910
1361538,641710,1161902
1361659,641666,1162140
1361701,641700,1162043
1361624,641906,1161983
1361569,642100,1161789
1361507,642331,1161807
1361616,642720,1161510
1361614,643013,1161208
1361751,643312,1161603
1362049,643420,1162243
1362114,643185,1162275
1361918,642975,1162162
1361668,642932,1162272
1361607,642792,1162246
1361847,642860,1160946
1361827,643028,1160184
1361668,643220,1159409
1361668,643573,1159403
1361758,643900,1160233
1361762,644239,1161174
1361755,644325,1162717
1361755,644119,1162847
1361711,643781,1163117
1361639,643547,1163631
1361797,643071,1164946
1361856,642951,1165985
1361869,643161,1166025
1362063,642995,1165419
1361761,643020,1164628
1361871,643159,1163787
1361945,643301,1163044
1362083,643054,1162920
1362384,642699,1163312
1362262,642375,1163273
1362195,641945,1163014
1362286,641806,1162343
1362385,641647,1162164
1362275,641884,1162336
1361916,641650,1162427
1361916,641538,1161574
1361950,641506,1161454
1362106,641363,1161134
1361933,641175,1161946
1362064,640788,1162277
1362155,640503,1163287
1362316,639931,1163476
1362143,639783,1163455
1362358,639348,1163505
1362340,639308,1163094
1362376,639429,1162672
1362361,639349,1163010
1362099,639237,1163700
1362183,639412,1164597
1362208,639379,1165099
1362572,639322,1165147
1362649,639328,1165008
1362620,639299,1165065
1362775,639350,1165193
1362587,639539,1165375
1362609,639646,1165670
1362457,639851,1165447
1362395,639904,1165086
1362395,639896,1164611
1362543,639856,1164743
1362517,639739,1165387
1362571,639459,1167080
1362686,639123,1167895
1362549,638858,1169072
1362833,638502,1169547
1362635,638538,1169783
1362805,638251,1169842
1362739,638122,1169412
1362457,637919,1168006
1362463,637826,1166872
1362490,637936,1166226
1362428,638444,1166187
1362559,638653,1165383
1362865,638902,1164635
1362876,639044,1164029
1362669,638727,1163280
1362657,638312,1162478
1362706,638049,1162080
1362796,637876,1161822
1362735,638009,1160381
1362461,638012,1159698
1362278,638114,1159863
1362278,638186,1160011
1362574,638123,1160116
1362397,638251,1160060
1362602,638249,1160440
1362403,638367,1160623
1362561,638842,1160600
1362571,639113,1160551
1362711,639675,1160502
1362628,640111,1160086
1362640,640483,1159509
1362402,640567,1158368
1362348,640387,1157356
1362498,640280,1156452
1362882,640246,1156225
1362842,640365,1155758
1363203,640465,1155271
1363115,640547,1155669
1363232,640802,1156336
1363149,641154,1156395
1363385,641732,1155375
1363041,642395,1153977
1363024,642686,1153504
1363024,643002,1152648
1363086,643461,1151790
1363292,644235,1151514
1363265,644866,1151911
1363568,645420,1151692
1363360,645975,1151090
1363781,646488,1150399
1363453,646524,1150311
1363848,646015,1149805
1363891,645761,1149182
1363941,645502,1148661
1363619,645569,1148535
1363721,645625,1148854
1363705,645872,1148993
1363930,645872,1149382
1364193,645850,1149358
1364223,645560,1149106
1364070,645100,1148787
1364239,644595,1148878
1364284,644425,1148490
1364119,644263,1147808
1364001,644320,1147414
1364001,644252,1147334
1363986,644249,1146546
1363983,644307,1145091
1364156,644303,1144304
1364084,643783,1144403
1364162,643185,1144844
1364013,642546,1145002
1364272,641932,1145232
1364022,641535,1145548
1364135,641272,1145572
1364042,641132,1145186
1364134,640897,1144644
1363934,640942,1144385
1364009,641008,1143931
1364037,641226,1143341
1364416,641410,1142149
1364396,641504,1141310
1364574,641752,1140353
1364406,641947,1139678
1364404,642125,1139548
1364478,642313,1139167
1364545,642540,1138526
1364130,642706,1138625
1364025,642616,1138295
1364025,642604,1137909
1364091,642602,1136880
1364214,642958,1136046
1364246,642897,1136117
1364371,642933,1135946
1364262,643205,1135760
1364345,643353,1135944
1364405,644121,1135652
1364525,644453,1134213
1364742,645019,1133120
1364772,645716,1132529
1364602,646603,1132350
1364572,647658,1132366
1364755,649025,1133220
1365205,650039,1133351
1365129,650503,1132920
1365230,650633,1131951
1365086,650495,1131662
1365139,649992,1131081
1365068,649793,1131070
1365239,649529,1130943
1365230,649620,1131555
1365230,649697,1132070
1365129,649921,1132370
1365092,650009,1130286
1365145,649919,1129551
1365087,649441,1129098
1365131,649042,1129020
1365103,648718,1129137
1365064,648743,1129427
1364972,648997,1129746
1365021,649220,1129717
1365045,649059,1129716
1365007,648607,1129202
1364922,648150,1128796
1364918,647702,1128805
1365048,647311,1128485
1364995,647025,1128179
1365279,646929,1128458
1365437,646799,1128825
1365095,646805,1128953
1365128,646745,1128941
1365189,646594,1128837
1365254,646186,1128504
1365044,645681,1128468
1364895,645314,1128417
1364895,644949,1128764
1364861,644869,1129589
1364913,644984,1130072
1364966,645019,1130305
1365058,645206,1130660
1364921,645377,1130129
1364921,645399,1129763
1364928,645210,1129385
1364940,644887,1129015
1364992,645000,1129208
1364850,645103,1129406
1364704,645186,1130179
1364667,645465,1131169
1364700,645430,1131300
1364934,645464,1131248
1365020,645366,1130917
1364719,645367,1130828
1364893,645232,1130589
1364869,645128,1129959
1365074,645463,1129461
1364988,645438,1129424
1364937,645779,1128951
1364937,645789,1128431
1364812,645770,1128233
1364768,645752,1128358
1364827,645706,1128390
1364986,645553,1128727
1364852,645354,1129191
1364777,645236,1129683
1364693,645341,1129015
1364744,645534,1128370
1364840,645715,1128129
1364726,646081,1128167
1364945,646099,1128848
1364840,646233,1129859
1364396,646453,1130794
1364630,646733,1130530
1364929,647233,1128867
1365211,647501,1127758
1365164,647687,1127484
1365060,647529,1128003
1364869,647255,1128450
1365125,647222,1129676
1365006,647174,1130944
1364843,646961,1132550
1364843,646573,1135966
1364748,646003,1137156
1364844,645548,1138512
1364802,645243,1138914
1364948,645028,1138780
1365049,644854,1138773
1364851,644912,1138968
1364940,645262,1139115
1364999,645615,1139259
1364937,645567,1139299
1364892,645379,1139254
1365000,644939,1138785
1364917,644591,1138666
1364904,644523,1138370
1364970,644368,1137761
1365351,644334,1138223
1365493,644293,1139704
1365222,644418,1141262
1365127,644396,1142075
1365206,644436,1142540
1365279,644166,1143241
1365080,644253,1144435
1365096,644254,1144710
1365096,644092,1143791
1365019,644319,1143473
1365232,644630,1143806
1365131,645216,1143896
1365091,646008,1144123
1365192,646197,1144632
1365067,645567,1145841
1365006,645315,1146955
1365077,644823,1147695
1365080,644715,1148473
1365187,644619,1149445
1365134,644473,1150780
1365186,644808,1152294
1365195,645259,1153484
1365410,645771,1154581
1365338,646056,1154986
1365539,646085,1155200
1365304,646056,1155036
1365507,645856,1154616
1365388,645652,1154432
1365836,645521,1154201
1365284,645500,1153968
1365101,645469,1154634
1365101,645243,1154335
1365026,645102,1154624
1365184,644947,1154621
1365105,645192,1154422
1365368,645054,1153909
1365257,645171,1153721
1365280,645205,1154084
1365292,646033,1154352
1365469,646464,1154286
1365357,647319,1154365
1365549,647679,1154292
1365265,647929,1154112
1365353,647968,1153680
1365379,648009,1153313
1365488,647675,1153370
1365761,647245,1153752
1365914,646916,1154445
1365837,646655,1155460
1365695,646689,1156006
1365678,646671,1156570
1366035,646627,1156698
1365731,646871,1156632
1365654,646955,1156498
1365654,646780,1155818
1365607,646566,1156047
1365728,646416,1155891
1365689,646574,1155688
1365744,646398,1155722
1365705,646076,1156219
1365743,645938,1157043
1365595,645773,1157295
1365873,645500,1157659
1365870,645410,1157437
1365841,645177,1157137
1365684,645145,1156679
1365492,645006,1156762
1365607,645036,1157304
1365879,645074,1158231
1366142,645131,1159364
1366150,645061,1160951
1365947,644826,1162307
1365890,644566,1163048
1365789,644405,1163416
1366254,644112,1163824
1365829,644139,1164113
1365730,643900,1163679
1365730,643760,1163020
1365645,643821,1163066
1365805,643951,1162662
1365832,644152,1162468
1365851,644528,1161776
1365717,644906,1161195
1365897,645711,1160547
1365709,645687,1159837
1365881,645157,1158949
1365895,644943,1158425
1365942,644555,1158329
1365894,644240,1158899
1365759,644073,1159087
1366055,643741,1159083
1366270,643270,1158930
1366436,643036,1158780
1366450,642107,1159223
1366412,641893,1159358
1366426,641570,1159370
1366295,641447,1158948
1366439,641262,1158148
1366200,641219,1157342
1365968,641316,1154609
1365968,641440,1153751
1366152,641487,1153711
1366004,641682,1153421
1366299,642104,1153233
1366389,642392,1152162
1366077,642404,1151241
1366169,642742,1149867
1366088,642928,1148827
1366194,642916,1147420
1366176,643031,1145910
1366187,642993,1144575
1366100,643044,1143852
1366218,643179,1143061
1366164,643649,1143083
1366342,644044,1144071
1366670,644342,1145732
1366530,644309,1146970
1366291,643800,1148261
1366370,643492,1148622
1366367,643285,1149268
1366521,643032,1149378
1366331,642985,1148758
1366331,642839,1148147
1366124,642901,1147901
1366021,643027,1148281
1366070,643123,1149046
1366078,643191,1150482
1366170,642973,1151104
1366000,642668,1151704
1365853,642442,1151761
1366134,642242,1151638
1366135,642289,1151469
1366194,642310,1151439
1366141,642338,1151477
1366105,642271,1151809
1366015,642245,1151691
1365949,642002,1152085
1366259,641826,1152210
1366435,641863,1153046
1366256,641830,1153061
1366428,641681,1152555
1366407,641588,1152028
1366479,641557,1151639
1366508,641612,1150976
1366267,641545,1151318
1366169,641196,1151601
1366169,641247,1152078
1366094,641194,1151480
1366183,641240,1150800
1366158,641157,1150158
1366275,640936,1149781
1366285,640660,1150089
1366172,640350,1150699
1366178,640421,1151658
1365987,640350,1152810
1366082,640273,1153537
1366212,640006,1153310
1366106,639705,1153018
1366047,639523,1152371
1366003,639261,1150961
1366143,638841,1150114
1366479,638505,1149785
1366284,638271,1149361
1366114,638208,1148360
1366164,638167,1147680
1366165,638420,1147172
1366212,638556,1146817
1366063,638802,1145927
1366063,638761,1145301
1365846,638461,1144676
1365824,638109,1143530
1365823,637930,1142842
1366024,637690,1142839
1365857,637455,1142544
1365787,637457,1142461
1365716,637337,1142301
1365662,637444,1142176
1365672,637391,1142307
1365781,637500,1142242
1365617,637531,1142244
1365670,637433,1141628
1365463,637548,1140100
1365457,637904,1138669
1365522,637964,1137981
1365949,637929,1138064
1365195,637940,1138092
1365524,637663,1137961
1365312,637534,1137411
1365665,637387,1136792
1365528,637271,1136114
1365328,636887,1135611
1365328,636606,1135250
1365128,636289,1135019
1365315,635868,1135160
1365427,635354,1135373
1365713,635237,1135289
1365522,634889,1135221
1365589,634973,1134991
1365290,634701,1134821
1365445,634182,1135002
1365215,633895,1135426
1365556,633800,1135785
1365248,633705,1135680
1365305,633699,1135564
1364812,633569,1135277
1365319,633543,1135041
1365335,633420,1135109
1365546,633390,1135434
1365220,633419,1135854
1365404,633432,1136552
1365089,633317,1137613
1365218,633454,1138276
1365047,633607,1137953
1365169,633788,1137754
1365169,633863,1138063
1364740,633996,1137563
1364931,634090,1137424
1364510,634043,1137704
1364504,633993,1137715
1364559,633780,1138143
1364741,633790,1138589
1364732,633877,1138798
1364711,633995,1139468
1364452,634071,1140230
1364690,634291,1139407
1364593,634201,1138200
1364582,634000,1136953
1364270,633876,1136421
1364433,633589,1136008
1364603,633396,1135943
1365035,633077,1135370
1364864,632854,1134831
1365025,632631,1134674
1364486,632648,1133973
1364633,632685,1132399
1364591,632887,1132170
1364753,632977,1133016
1364753,632920,1133522
1364378,632842,1133736
1364497,632851,1133762
1364503,632946,1133310
1364492,632978,1132689
1364369,632842,1131936
1364440,633011,1130849
1364483,633694,1129149
1364605,634005,1128139
1364457,634484,1127907
1364601,634618,1127331
1364499,634624,1126848
1364434,634430,1126711
1364439,634431,1127112
1364402,634652,1128055
1364680,634845,1128856
1364864,634998,1129020
1364470,635290,1128920
1364741,635030,1129071
1364736,635036,1129138
1364746,634831,1129493
1364643,634834,1129491
1364420,634679,1130072
1364348,634326,1130175
1364348,634253,1130737
1364563,634224,1131474
1364446,634477,1132000
1364551,634742,1132902
1364612,634863,1133562
1364670,635475,1133298
1364577,635438,1132857
1364727,635250,1132562
1364645,635202,1133351
1364677,634937,1133611
1364808,634610,1134081
1364404,634271,1135084
1364472,633783,1136454
1364829,633473,1137372
1364905,633271,1138028
1365371,633069,1137891
1365070,632805,1138326
1365070,632544,1138214
1365051,632584,1138359
1365090,632503,1138457
1364896,632757,1138273
1364726,632905,1137960
1364726,632756,1137578
1364539,632586,1137531
1364790,632322,1137270
1364755,632152,1137633
1364888,631828,1137994
1364738,631458,1138825
1364700,631428,1138911
1364717,630992,1138965
1364846,630916,1138847
1364750,630801,1138832
1364926,630536,1138572
1364783,630190,1138623
1364723,630042,1138469
1364658,629989,1139414
1364678,629984,1139836
1364811,629869,1139563
1365060,629748,1139495
1364878,629561,1139829
1365053,629129,1140042
1364773,628894,1141694
1364634,628605,1143008
1364869,628584,1144392
1364637,628474,1145017
1364637,628237,1145668
1364570,627892,1146118
1364736,627689,1145359
1364509,627277,1145314
1364644,626978,1145391
1364554,626535,1145425
1364682,625823,1145729
1364479,625560,1146230
1364677,625309,1146802
1364526,624982,1146630
1364530,624769,1146122
1364530,624391,1145621
1364425,624222,1145587
1364338,624028,1146185
1364428,623904,1146417
1364662,623757,1146780
1364787,623669,1147655
1364685,623368,1149384
1364620,623195,1150475
1364503,623024,1151721
1364318,622766,1151915
1364457,622620,1152376
1364138,622427,1151947
1364138,622144,1152106
1363953,621929,1152097
1364186,622011,1151731
1364160,622258,1151313
1364113,622194,1151149
1364024,621998,1151039
1363971,621490,1151523
1363981,621485,1152884
1364023,621334,1154305
1364016,621157,1154609
1364192,621057,1154367
1364012,620936,1153954
1363885,620733,1153306
1363972,620748,1153354
1363934,620609,1153182
1364348,620403,1152200
1364302,620200,1151797
1364080,620021,1150999
1363944,619830,1150507
1363990,619741,1149395
1363818,619613,1148819
1364113,619604,1148755
1363748,619438,1148724
1363748,619138,1148251
1363909,618977,1148063
1364025,618718,1148101
1363930,618525,1148088
1363879,618126,1147761
1363828,617910,1147695
1363717,617688,1147862
1363790,617581,1148349
1363835,617527,1148695
1363872,617336,1149049
1363775,617140,1149711
1363841,616896,1150108
1363471,616659,1149961
1363693,616557,1149276
1363562,616401,1148063
1363811,616250,1147136
1363903,616099,1146505
1363906,616049,1146220
1363668,616072,1145644
1363904,616192,1145433
1363682,616319,1145047
1363453,616361,1144255
1363246,616401,1143841
1363246,616166,1143144
1363254,615793,1143346
1363313,615526,1143711
1363263,615298,1143932
1363321,615097,1143932
1363305,615074,1143697
1363110,615156,1143183
1363103,615429,1142847
1363087,615457,1142158
1363197,615364,1141399
1362997,615305,1141189
1363083,615008,1141081
1362816,614926,1141452
1363047,614754,1140893
1363043,614720,1140033
1363390,614591,1139813
1363351,614633,1139743
1363434,614587,1138710
1363303,614613,1138179
1363380,614742,1138032
1363402,614950,1137276
1363230,615317,1137106
1362929,615419,1137370
1362946,615390,1137509
1362946,615162,1136846
1362843,614908,1136628
1363137,614512,1136006
1362960,614210,1135146
1362990,613930,1134152
1362842,613961,1133482
1363055,613883,1133370
1362844,614009,1133313
1362978,614167,1133337
1362922,614113,1133668
1362836,613905,1133624
1362654,613959,1132990
1362891,614024,1132197
1362807,614408,1131952
1363193,614535,1132066
1363067,614703,1132346
1363006,614893,1133432
1363023,614939,1133463
1362982,615126,1133480
1362941,615434,1132805
1362820,615486,1132645
1362820,615462,1132436
1362582,615368,1132182
1362655,615298,1132107
1362746,615470,1132246
1362729,615576,1132424
1362734,615503,1132495
1362785,615578,1132178
1362624,615930,1132258
1362687,616219,1131616
1362539,616133,1130222
1362829,616182,1129340
1362700,616261,1129020
1362770,616229,1129358
1362463,616521,1129322
1362787,616607,1129558
1362851,616964,1129976
1363276,617180,1130012
1363136,617114,1130026
1363210,616822,1129896
1362940,616602,1129999
1363210,616372,1129815
1363015,616252,1130291
1362941,616054,1130433
1362941,615940,1130279
1362868,615953,1129976
1363080,616072,1129742
1362966,616114,1128830
1363043,616030,1128020
1362820,615814,1127196
1363057,615677,1126865
1362779,615840,1125964
1362934,615608,1125142
1363096,615429,1124460
1363027,615382,1123709
1362970,615006,1123205
1362889,614886,1123067
1362845,614933,1122910
1362997,614891,1122977
1363295,614950,1122861
1363228,614894,1122596
1363229,614874,1122519
1363336,614855,1122218
1363277,614818,1122452
1363426,614761,1122262
1363087,614935,1121746
1362840,614953,1121588
1362638,614989,1121586
1362638,615014,1121904
1362818,615256,1121782
1362901,615449,1122211
1362989,615498,1122499
1362939,615521,1122365
1362957,615370,1122381
1362936,615168,1121529
1363020,614938,1120291
1363153,614928,1120101
1363230,614588,1119996
1362883,614381,1120028
1362949,614211,1120033
1362913,614086,1120088
1363068,613849,1120554
1363372,613660,1120787
1363487,613474,1119891
1363314,613257,1119013
1363237,613022,1118959
1363291,612949,1119019
1363446,612912,1119397
1363193,612956,1119632
1362878,612689,1120420
1362878,612579,1120039
1362939,612500,1119457
1362949,612409,1118759
1363012,612325,1118763
1363163,612032,1119451
1362967,611953,1120190
1362849,612069,1120498
1363055,612115,1121083
1362959,611887,1120974
1362915,611889,1119990
1363041,611813,1119659
1362980,611742,1119959
1362812,611572,1120109
1362722,611542,1119892
1362880,611357,1119421
1363287,611311,1119364
1363362,611208,1119560
1363131,610898,1118356
1363352,610739,1117229
1363271,610612,1116319
1363466,610577,1116610
1363085,610592,1116575
1362887,610542,1116772
1362887,610492,1116711
1362920,610357,1116506
1363003,610215,1116020
1363107,610036,1115610
1363014,609980,1115796
1362911,609901,1116510
1363102,609672,1116776
1363081,609559,1117501
1363081,609540,1118648
1363143,609342,1119341
1363124,609122,1119886
1363097,608931,1120345
1363123,608752,1119703
1363155,608644,1119512
1363424,608421,1119285
1363366,608384,1119095
1363476,608414,1120035
1363439,608417,1120970
1363496,608317,1121788
1363338,608238,1123071
1363408,608213,1124126
1363220,608155,1124380
1363220,608094,1123967
1363020,608013,1123224
1363117,608009,1122123
1363194,608024,1121144
1363188,608031,1119807
1363371,607863,1119182
1363175,607733,1118864
1363016,607512,1118388
1363237,607639,1118043
1363091,607588,1118162
1363196,607488,1117994
1363116,607466,1117095
1363045,607269,1116377
1362864,607097,1115965
1362968,606762,1115550
1363063,606885,1114758
1363201,606709,1113848
1363185,606731,1113602
1363294,606617,1113915
1363135,606408,1114167
1363099,606378,1114754
1363064,606165,1115838
1362881,605975,1117168
1362881,605831,1118393
1362810,605510,1119112
1362862,605111,1120162
1362868,605004,1121026
1362760,604758,1121903
1362946,604607,1122303
1362924,604538,1121641
1363003,604124,1120781
1362995,604041,1120283
1363070,604042,1120821
1363048,604038,1121253
1362908,603866,1121782
1363018,603691,1122019
1362991,603477,1122564
1362880,603245,1122230
1362888,603099,1121747
1363267,602995,1121091
1363184,602751,1120628
1363378,602601,1120703
1362968,602563,1121232
1363205,602634,1121956
1363057,602889,1122718
1363031,602975,1122849
1363031,602974,1122277
1362677,603002,1121485
1362894,602843,1121202
1362747,602863,1121298
1362920,602679,1122168
1362802,602417,1122670
1362859,602197,1122430
1362667,602111,1123315
1362823,602057,1124092
1362684,602109,1125139
1362831,602024,1125645
1362637,601856,1125258
1362607,601839,1125381
1362736,602047,1125806
1362885,602170,1126046
1362927,602495,1125918
1363025,602722,1125332
1362999,602537,1125263
1362874,602281,1124902
1362737,601943,1124757
1363015,601834,1124872
1362758,601809,1124425
1362638,601789,1123310
1362638,601818,1122570
1362783,601645,1121939
1362929,601724,1122111
1362851,601607,1122231
1362844,601484,1121565
1362783,601334,1120639
1362914,601601,1119746
1362800,601510,1119279
1363017,601472,1119423
1362926,601465,1120224
1362822,601403,1120245
1362808,601290,1119855
1362974,601317,1119881
1362758,601356,1120075
1363236,601202,1120482
1363365,601437,1120934
1363505,601254,1121140
1363498,601054,1121193
1363426,600947,1121549
1363170,601013,1121844
1363467,601027,1121873
1363152,600969,1121942
1363022,600746,1121932
1363022,600634,1121869
1363039,600269,1121736
1363157,600238,1122231
1363053,600026,1123012
1363112,599987,1123653
1363102,599936,1123065
1363168,599864,1122416
1363111,600000,1121828
1363135,599928,1121302
1363130,599864,1120924
1363097,600040,1120276
1362770,599890,1120636
1362937,599727,1120300
1362896,599732,1119619
1363170,599555,1119053
1363313,599603,1118518
1363393,599560,1118524
1363274,599339,1118775
1363244,599220,1119133
1362835,599417,1119212
1363073,599534,1119228
1362970,599664,1119049
1362903,599434,1118968
1362903,599369,1117876
1362778,599306,1117290
1362924,599325,1117445
1362896,599047,1117426
1363060,598771,1117371
1362852,598521,1117543
1363091,598492,1117232
1362930,598729,1116974
1363035,598763,1117039
1362960,598600,1117477
1362949,598480,1117413
1362792,598359,1117373
1362920,598384,1117635
1362942,598248,1118200
1363335,598371,1119619
1363413,598511,1119214
1363336,598617,1119900
1363303,598626,1119395
1363383,598759,1119789
1363349,598889,1119965
1363275,599161,1120095
1363075,599240,1119871
1362892,599093,1120136
1362892,599157,1120014
1363023,599041,1120526
1363093,599120,1120769
1363101,599021,1121183
1363201,598863,1120857
1362933,598880,1120465
1362968,598713,1120088
1363021,598760,1119780
1363037,598590,1120128
1363057,598646,1119671
1363038,598516,1119494
1362928,598345,1120067
1363235,598178,1120808
1363189,598376,1121454
1363485,598366,1122673
1363597,598409,1123015
1363537,598334,1123132
1363495,598409,1123311
1363405,598447,1123408
1363436,598600,1123158
1363587,598724,1123465
1363083,598728,1123539
1363083,598771,1123239
1363201,598899,1123254
1363172,598715,1123335
1363300,598745,1123525
1363151,598571,1123824
1363208,598453,1123725
1363192,598310,1124290
1363224,598405,1124735
1363193,598461,1125335
1363390,598438,1124826
1363256,598835,1124126
1363353,598908,1123577
1363180,598898,1123515
1363403,599031,1123694
1363317,598988,1123249
1363601,598837,1122974
1363614,598872,1123417
1363705,598810,1123816
1363695,598980,1124369
1363697,599167,1125365
1363776,599406,1126149
1363530,599806,1126358
1363519,600078,1126447
1363519,600235,1126090
1363637,600460,1125894
1363612,600642,1125968
1363749,600973,1126163
1363738,600902,1126279
1363589,601000,1126218
1363885,601051,1126262
1363777,601066,1126912
1363854,601060,1127466
1363748,601099,1127730
1363655,600921,1127283
1363652,600641,1127371
1363756,600566,1127152
1363767,600669,1127308
1363974,600764,1128009
1364172,600963,1128130
1364251,601221,1128032
1364287,601344,1127635
1364240,601645,1127401
1364144,601745,1127536
1364250,601935,1127597
1364036,602057,1127968
1363970,602289,1128433
1363970,602255,1128650
1363996,602325,1128988
1364085,602286,1129176
1364060,602300,1129173
1364063,602235,1128805
1364001,602308,1128417
1364030,602101,1128132
1364047,602154,1127756
1364201,601985,1128201
1364069,602087,1128702
1364137,601995,1128362
1364088,601847,1128450
1363991,601860,1127993
1364153,601783,1127812
1364548,601803,1128334
1364574,601755,1128190
1364625,601719,1128274
1364593,601744,1128477
1364399,601731,1128569
1364418,601911,1128166
1364540,602054,1127863
1364326,602106,1127926
1364326,601848,1128192
1364402,601857,1128381
1364413,601764,1129171
1364314,601879,1129712
1364523,601816,1130056
1364649,601792,1129572
1364597,602039,1129283
1364488,602148,1128981
1364247,602170,1129111
1364477,602108,1128971
1364512,602024,1128762
1364505,601720,1128446
1364375,601687,1128161
1364556,601644,1128136
1364485,601765,1128118
1364565,601734,1127911
1364692,601788,1128549
1364868,601839,1128479
1364543,601876,1128672
1364630,601840,1128560
1364905,601667,1128608
1364532,601739,1129232
1364394,601646,1129244
1364394,601465,1128851
1364491,601506,1128569
1364509,601477,1128085
1364724,601781,1128001
1364613,601875,1127906
1364705,601910,1127827
1364294,601744,1127247
1364746,601574,1126484
1364622,601391,1125947
1364843,601462,1125903
1364748,601416,1125908
1364841,601300,1126235
1364523,601318,1126945
1364747,601506,1127165
1364713,601491,1127310
1365152,601291,1127358
1365101,601181,1127209
1365269,600867,1126762
1365274,600630,1126706
1365366,600473,1126808
1365445,600487,1127274
1365323,600433,1127908
1365017,600465,1128665
1365238,600478,1129454
1365238,600628,1129529
1365241,600833,1128807
1365402,600814,1128372
1365349,600526,1127957
1365191,600452,1127827
1365277,600235,1128169
1365436,600380,1128279
1365423,600415,1128910
1365600,600516,1129163
1365337,600612,1129708
1365444,600533,1129942
1365142,600666,1129748
1365348,600521,1129340
1365506,600550,1127942
1365806,600467,1127658
1365706,600587,1127865
1365718,600602,1128059
1365356,600899,1128652
1365756,601254,1128825
1365608,601664,1127948
1365394,601979,1126785
1365394,602301,1126057
1365510,602388,1125690
1365687,602496,1126092
1365636,602417,1127109
1365572,602355,1128072
1365315,602132,1128323
1365675,602224,1128794
1365666,602443,1128610
1365793,602557,1128608
1365891,602881,1128607
1366105,603130,1128366
1365761,603331,1128232
1365794,603441,1128780
1365832,603595,1129030
1366112,603571,1129702
1366221,603604,1130864
1366491,603496,1130864
1366355,603496,1131707
1366445,603315,1133266
1366362,603303,1134935
1366684,603296,1135199
1366433,603523,1135867
1366433,603688,1135850
1366181,603872,1135336
1366334,604185,1134871
1366473,604897,1135066
1366465,605565,1135641
1366606,606292,1136015
1366551,607100,1136343
1367043,609195,1136665
1367024,610022,1135940
1367198,610169,1135404
1367230,610548,1134336
1367230,610369,1133264
1367221,610237,1132545
1367249,610062,1131340
1367471,609785,1129630
1367682,609530,1127470
1368030,609355,1126310
1367774,609115,1125515
1367872,608940,1125240
1367927,608580,1125821
1367780,608374,1125708
1367769,608023,1125912
1367530,607583,1126019
1367530,607132,1125796
1367493,606440,1125350
1367520,605913,1124813
1367616,605499,1123816
1367429,605148,1123058
1367639,604897,1121848
1367377,604397,1121093
1367615,604452,1120679
1367564,604372,1121355
1367581,604494,1121776
1367396,604526,1122471
1367357,604302,1123468
1367161,604134,1124601
1367370,604278,1125535
1367407,604366,1126609
1367740,604510,1127310
1367888,604547,1127457
1367602,604322,1128172
1367647,604207,1128571
1367100,604061,1128870
1367530,603718,1128705
1367371,603717,1128514
1367314,603623,1128194
1367314,603292,1128411
1367445,603071,1128551
1367281,603119,1128643
1367331,603131,1128261
1367475,603313,1128692
1367561,603615,1128553
1367472,603777,1128236
1367298,603455,1127784
1367472,603017,1127960
1367578,602914,1127565
1367529,602645,1126813
1367264,602349,1125579
1367334,602249,1124387
1367327,601941,1123600
1367474,601540,1122545
1367661,601096,1121848
1367692,600796,1122691
1367757,600500,1122466
1367450,600480,1121919
1367626,600519,1121173
1367574,600587,1120061
1367433,600535,1118900
1367433,600898,1118558
1367109,600813,1118715
1367133,600821,1119109
1367076,600606,1119877
1366909,600492,1120469
1367185,600566,1120701
1366784,600876,1120752
1366781,601208,1120635
1366841,601180,1120131
1366858,601362,1119927
1366636,601296,1119436
1366714,601046,1119170
1366498,600942,1119634
1366781,600823,1119942
1366643,600741,1120371
1366963,600594,1120448
1366873,600645,1119665
1367114,600525,1118655
1366820,600762,1118001
1367038,601095,1117791
1366956,601287,1117607
1366859,601368,1117607
1366522,601338,1117918
1366604,601304,1118277
1366604,601130,1118132
1366845,601046,1118501
1366917,600959,1118683
1366725,600767,1119093
1366874,600883,1118685
1366673,601006,1118290
1366954,601401,1118032
1366734,601462,1116838
1366869,601414,1116642
1366643,601228,1116015
1366697,600878,1115822
1366466,600988,1116427
1366673,600651,1116730
1366801,601016,1117667
1367175,601221,1117842
1367020,601339,1117783
1367000,601263,1117858
1366721,601188,1117024
1366922,600997,1115640
1367013,601010,1114693
1366972,601098,1113568
1366972,601068,1112574
1366669,601116,1111913
1366870,601150,1111666
1366899,601073,1112373
1366946,601231,1112602
1366703,601017,1112393
1366868,601055,1111830
1366814,600770,1111848
1366829,600794,1112150
1366779,600882,1113110
1366798,601061,1114131
1366734,601157,1115530
1366814,601284,1117078
1366580,601545,1118930
1366840,601702,1119841
1366679,601937,1119256
1367091,602138,1118977
1366911,602405,1118817
1367134,602563,1118306
1367002,602632,1118077
1367125,602436,1118078
1366983,602274,1118319
1366833,601847,1117841
1366833,601485,1117193
1366914,601189,1116351
1366930,601140,1116319
1366900,601021,1116307
1367063,600979,1117005
1366966,600845,1117168
1367058,600927,1117472
1366884,600901,1117184
1367097,600704,1116813
1366984,600569,1116585
1366972,600334,1116150
1366756,600290,1115799
1366991,600282,1115543
1366906,600406,1115774
1367053,600255,1117533
1367469,600137,1118866
1367217,599920,1120675
1367241,599615,1121622
1367236,599358,1122175
1367144,599394,1121982
1367424,599553,1121415
1367096,599625,1121340
1367096,599484,1120845
1367078,599427,1120437
1366904,599623,1120649
1367087,599652,1121054
1367102,599559,1120821
1367174,599391,1120497
1366995,599314,1120538
1366969,599326,1120593
1366908,599309,1119732
1366972,599015,1119747
1366904,599008,1120050
1367110,598612,1120247
1366824,598304,1120200
1366883,598122,1120190
1366910,597703,1119208
1367172,597826,1118222
1367236,597777,1117802
1367265,597827,1118001
1367193,597945,1118324
1367377,598178,1119717
1367200,598370,1119965
1367414,598612,1118926
1366918,598385,1117759
1366918,598034,1117243
1366994,597858,1116737
1366984,597433,1116717
1367092,597324,1116628
1367115,597025,1116885
1367030,596726,1117760
1366993,596099,1118609
1367021,595976,1119745
1367077,595645,1120480
1366923,595625,1120235
1366816,595746,1119815
1367034,595651,1119504
1366884,595624,1119413
1366880,595588,1119601
1366862,595453,1119552
1367264,595271,1119335
1367055,595029,1118985
1367356,594752,1118607
1367089,594638,1117791
1366968,594366,1117632
1366931,594153,1117533
1366963,593976,1117539
1366711,593758,1116359
1366711,593550,1115781
1366754,593675,1115085
1366804,593863,1114579
1366817,594153,1114058
1366778,594346,1113877
1366844,594357,1113570
1366756,594359,1113048
1366954,594544,1112816
1366704,594483,1112928
1366965,594444,1112684
1366926,594303,1112068
1366804,593984,1111478
1366570,593709,1111317
1366690,593351,1111511
1366821,593054,1114044
1367122,592870,1115589
1367105,592781,1116550
1367192,592730,1116339
1366908,592839,1115938
1367042,592973,1115512
1367021,593162,1115108
1366848,593150,1115002
1366848,592921,1115404
1366741,592838,1115739
1366850,592694,1115884
1366693,592737,1115996
1366804,592743,1116082
1366792,592456,1115939
1366957,592117,1115777
1366780,591846,1115958
1366831,591466,1116852
1366899,591416,1117335
1366757,591344,1117776
1366729,591244,1118083
1366578,591027,1118226
1366659,591151,1117812
1366506,591133,1116272
1366932,590758,1116374
1366908,590781,1116880
1367028,590456,1116771
1367013,590191,1117317
1366875,590104,1117674
1366857,589994,1117887
1366878,590100,1117988
1366482,590213,1117469
1366482,590109,1116644
1366382,589921,1116495
1366528,589929,1116998
1366499,589893,1117789
1366490,589705,1118715
1366704,589775,1119458
1366615,589912,1119911
1366633,590146,1119937
1366678,590082,1119758
1366472,589932,1119544
1366519,589663,1119148
1366447,589512,1119588
1366426,589515,1119167
1366492,589460,1118909
1366746,589458,1117769
1366860,589484,1117893
1366894,589421,1118626
1366787,589317,1118955
1366569,589251,1119489
1366684,589043,1120213
1366553,588959,1120969
1366504,588840,1121019
1366417,588763,1121154
1366417,588713,1121110
1366546,588716,1121356
1366572,588650,1121106
1366477,588589,1121178
1366533,588607,1121106
1366406,588646,1120810
1366326,588899,1121075
1366553,588938,1121393
1366476,589263,1121351
1366447,589126,1121368
1366451,589363,1120542
1366401,589471,1120296
1366334,589574,1120401
1366478,589557,1120579
1366761,589617,1119656
1366787,589523,1119112
1366630,589420,1118960
1366667,589581,1119172
1366611,589633,1119659
1366791,590035,1120348
1366593,590188,1120498
1366471,590402,1120839
1366471,590405,1120756
1366322,590531,1120801
1366248,590694,1121350
1366403,590637,1121717
1366619,590842,1122236
1366274,590915,1122808
1366374,590737,1123592
1366303,590486,1123835
1366540,590280,1124476
1366636,590247,1124717
1366545,589979,1124346
1366423,589640,1124235
1366603,589708,1125220
1366363,589772,1125982
1366859,589752,1126866
1366769,589828,1125687
1366916,589851,1125687
1367017,589831,1125162
1366804,589750,1124954
1366633,589840,1124743
1366884,589920,1124903
1366566,590009,1124987
1366566,589971,1125249
1366576,589749,1125539
1366547,589435,1126356
1366612,589548,1127253
1366530,589401,1127053
1366679,589158,1127114
1366461,589159,1126867
1366564,589249,1126890
1366395,589324,1126836
1366461,589411,1127109
1366338,589414,1127507
1366572,589153,1127265
1366356,589072,1127517
1366452,588846,1127899
1366562,588846,1128738
1366666,588848,1130601
1366959,589026,1131149
1366850,588897,1131751
1366757,588930,1131535
1367011,588938,1131547
1366951,588748,1131410
1366890,588832,1130876
1366615,588694,1130902
1366615,588410,1131500
1366721,588421,1131340
1366582,588290,1131170
1366685,588512,1131108
1366719,588232,1131917
1366666,588133,1132138
1366588,588232,1131756
1366744,588208,1130961
1366797,588346,1130974
1366765,588363,1131524
1366839,588438,1132381
1366678,588575,1133004
1366459,588541,1133458
1366587,588490,1133780
1366804,588549,1134459
1367250,588354,1133171
1367152,588401,1131912
1366915,588354,1131668
1366823,588469,1131561
1366947,588602,1131763
1366851,588813,1131787
1366738,588850,1132513
1366738,588781,1133011
1366654,588579,1133550
1366622,588477,1133810
1366743,588458,1133376
1366823,588413,1132526
1366925,588476,1131870
1366845,588864,1130630
1366648,588817,1130165
1367001,588565,1129771
1366933,588581,1129696
1366876,588466,1129954
1366798,588533,1129618
1366834,588645,1129183
1366841,588862,1129300
1367007,589019,1130120
1367217,589249,1130621
1367455,589249,1131135
1367316,589304,1132156
1367214,589384,1132935
1367345,589438,1133784
1367520,589517,1134259
1367289,589277,1134286
1367327,589356,1133658
1367327,589437,1132828
1367279,589500,1132298
1367402,589861,1132159
1367400,590231,1132695
1367495,590282,1133662
1367449,590351,1134566
1367698,590175,1135424
1367667,590328,1135616
1367838,590286,1135988
1368000,590340,1136701
1368067,590491,1137207
1367850,590464,1136803
1367863,590712,1136294
1367767,590750,1136000
1368119,590571,1136044
1368218,590362,1136587
1368248,590295,1136978
1368379,590314,1137451
1368324,590308,1137523
1368071,590286,1137830
1367967,590479,1138183
1367700,590629,1138035
1367700,590752,1137876
1367665,591060,1137496
1367803,591127,1137205
1367838,591082,1136903
1367792,590917,1136874
1368056,590800,1137147
1367982,590667,1136588
1367996,590693,1135956
1367914,590698,1135899
1368080,590925,1136706
1368210,591183,1137769
1368056,591508,1138680
1368189,591938,1139333
1368423,592436,1138997
1368561,592860,1138482
1368971,593055,1138027
1368937,593124,1137216
1368775,592984,1137272
1368712,592644,1137530
1368853,592491,1137465
1368827,592483,1137980
1368729,592603,1138388
1368729,592695,1139199
1368397,592762,1139848
1368622,592925,1139953
1368749,593045,1139721
1368698,592692,1139258
1368574,592350,1138935
1368656,592096,1138905
1368748,592333,1138710
1368901,592163,1139044
1368916,592318,1138915
1368829,592334,1138849
1368969,592216,1138154
1368792,592240,1137393
1368962,592397,1136725
1368991,592627,1137160
1369478,592982,1137302
1369545,593217,1138485
1369710,593447,1138927
1369313,593668,1138697
1369459,593894,1137783
1369875,594114,1137683
1369480,594663,1137420
1369480,594802,1137354
1369774,595081,1137586
1369934,595193,1138012
1370117,595065,1138286
1370356,594982,1138974
1370404,594874,1139512
1370371,595102,1139362
1370663,595700,1138399
1370867,596044,1137483
1370986,596349,1137290
1371156,597017,1137125
1371109,597352,1137455
1371228,597141,1137551
1371155,597344,1137361
1371501,597339,1137916
1371740,597462,1138380
1371981,597603,1138223
1372059,597448,1136709
1372172,597178,1135851
1372299,597058,1136002
1372417,596972,1136865
1372277,596994,1137576
1372169,597055,1137866
1372169,596984,1137790
1372161,597104,1137082
1372405,597276,1136489
1372465,597553,1136374
1372679,597843,1136931
1372633,598008,1137637
1372896,597941,1138728
1372885,597756,1139838
1372983,597214,1140434
1372996,596753,1141721
1373041,596568,1142716
1372906,596374,1144337
1373050,596514,1144906
1372800,596534,1145056
1373218,596570,1145027
1373382,596687,1144238
1373694,596614,1142990
1373445,596059,1141609
1373203,595720,1141495
1373276,595506,1141047
1373463,595406,1140700
1373174,595342,1140434
1373174,595349,1140639
1373259,595294,1140658
1373230,595186,1140419
1373587,595088,1139587
1373456,594581,1138946
1373473,594014,1138276
1373604,593702,1138130
1373664,593750,1138302
1373758,593770,1138366
1373779,593979,1138601
1373775,594058,1138773
1373849,594119,1139021
1373713,594085,1138929
1373971,593992,1138861
1373816,593609,1138256
1374147,593494,1137413
1374115,593260,1137149
1374376,593116,1137565
1374210,593127,1137533
1374376,593089,1137593
1374288,593201,1137104
1374130,592991,1136840
1373712,592805,1136439
1373712,592653,1136326
1373947,592330,1136565
1373994,592169,1136775
1374116,592093,1136547
1373963,592103,1136706
1374040,592207,1136744
1373963,592424,1137067
1374139,592349,1136419
1374114,592310,1135189
1374334,592172,1134248
1374119,592040,1133854
1374126,591691,1133622
1374094,591490,1133410
1374105,591381,1133178
1374458,591336,1133207
1374756,591241,1132707
1374502,590985,1132106
1374513,590792,1131505
1374404,590718,1131278
1374770,590734,1131486
1374691,590848,1132048
1374594,590728,1132353
1374594,590732,1132663
1374765,590663,1132865
1374642,590519,1132423
1374557,590394,1131727
1374624,590501,1131046
1374516,590212,1130597
1374362,590193,1130411
1374092,590278,1131122
1374463,590136,1131111
1374412,590281,1131178
1374606,590346,1130707
1374270,590450,1130722
1374381,590390,1130955
1373969,590534,1130894
1374618,590510,1130257
1374738,590467,1130748
1374735,590382,1131350
1374678,590364,1131277
1374733,590204,1131425
1374862,590336,1131709
1374575,590449,1131995
1374287,590565,1132338
1374287,590289,1132691
1374303,590353,1132596
1374309,590023,1132140
1374381,590096,1131657
1374377,590068,1130851
1374288,590107,1130429
1374250,590244,1130634
1374315,590340,1130724
1374181,590233,1131122
1374395,590253,1131147
1374430,590331,1130512
1374539,590239,1129394
1374144,590280,1129026
1374380,590567,1128707
1374391,591000,1128980
1374801,591203,1129630
1374742,591289,1130796
1374805,591395,1131774
1374570,591421,1132276
1374844,591458,1131528
1374619,591534,1130985
1374607,591787,1130641
1374378,591976,1130172
1374378,592070,1129930
1374411,592328,1129509
1374687,592164,1129433
1374709,592366,1129406
1374697,592450,1129421
1374949,592565,1129762
1374938,593272,1129600
1375058,593163,1129736
1375233,592727,1129658
1375247,592622,1129882
1375132,592345,1129892
1375055,592006,1130036
1375020,591910,1130094
1375056,591872,1129723
1375098,591679,1129049
1375406,591769,1129104
1375259,591698,1129226
1375317,591548,1129535
1374946,591650,1130421
1375369,591879,1130277
1375296,592003,1129789
1374926,592231,1129522
1374861,592394,1128997
1374861,592583,1128487
1374997,592677,1127781
1374955,592858,1127419
1374998,593060,1126898
1374844,593387,1127229
1374807,593655,1127768
1374938,594022,1127736
1375180,594257,1127176
1375253,594244,1126301
1375408,594155,1125449
1375416,594061,1125082
1375245,593939,1125199
1375265,594138,1125405
1375512,594424,1124956
1375882,594772,1124679
1376031,595231,1124879
1376147,595688,1124616
1376096,595999,1123895
1376017,596224,1121528
1376046,596286,1121021
1376117,596161,1120657
1375921,596141,1120528
1375921,596007,1120943
1375808,595715,1121514
1375896,595494,1121607
1376023,595510,1121806
1376080,595468,1121990
1376233,595487,1122719
1376118,595576,1123640
1376266,595341,1124305
1376257,595084,1123876
1376331,595228,1124033
1376373,595274,1124364
1376329,595245,1124939
1376248,595358,1126032
1376359,595675,1126683
1376363,596005,1126890
1376715,596441,1126617
1376649,596821,1126896
1376777,596744,1127052
1376668,596687,1126902
1376755,596532,1126381
1376585,596542,1126461
1376416,596746,1126222
1376251,596569,1126288
1376251,596656,1125920
1376420,596631,1125976
1376436,596755,1125828
1376539,596535,1125551
1376496,596096,1125632
1376398,595996,1126257
1376379,595932,1127024
1376456,596095,1128250
1376617,596186,1127998
1376584,596328,1127455
1376620,596115,1126373
1376565,595876,1125644
1376153,595597,1125023
1376394,595351,1124542
1376591,595144,1124250
1376921,594809,1124218
1376740,594755,1124168
1376979,594691,1124686
1376538,594740,1124786
1376979,594945,1124918
1376733,594897,1125298
1376494,595099,1125584
1376494,595259,1125997
1376519,595345,1125805
1376733,595541,1125099
1376677,595708,1125158
1377094,595896,1125027
1376837,596025,1125042
1376977,596396,1124927
1376949,596208,1124931
1377040,596198,1125142
1376949,596200,1124547
1377106,596292,1123750
1377068,596346,1123438
1376904,596262,1123819
1377039,596649,1124267
1377070,596738,1124577
1376966,596849,1124580
1377502,596643,1124671
1377354,596389,1123792
1377542,596237,1121311
1377432,596234,1120389
1377578,596274,1119949
1377367,596617,1120010
1377170,596765,1120296
1377170,596992,1120269
1377281,596942,1119317
1377356,596922,1118378
1377341,597071,1117980
1377491,597107,1117480
1377363,597131,1116720
1377526,597382,1116638
1377283,597603,1117202
1377442,597351,1117932
1377352,597375,1117794
1377066,597105,1117684
1377198,596768,1117885
1377380,596427,1117627
1377336,596291,1116869
1377467,596242,1115963
1377684,596055,1115586
1377728,595963,1115974
1377665,595823,1116584
1377751,595794,1116560
1377676,595771,1116101
1377874,595732,1116027
1377693,595884,1115164
1377569,595917,1114897
1377569,595953,1114826
1377335,595839,1115030
1377556,595664,1114911
1377390,595649,1115723
1377478,595485,1115873
1377246,595291,1116267
1377339,595374,1116043
1377372,595462,1116114
1377423,595515,1115376
1377470,595625,1115167
1377419,595579,1115259
1377205,595593,1115868
1377143,595455,1116453
1377297,595402,1116446
1377578,595174,1116258
1377647,595206,1116439
1377806,595234,1116715
1377633,595228,1117075
1377862,595295,1116883
1377529,595349,1117162
1377773,595320,1117033
1377301,595583,1117039
1377277,595629,1116942
1377277,595728,1116665
1377358,595502,1116456
1377608,595499,1116069
1377495,595431,1115853
1377666,595501,1116127
1377427,595524,1116948
1377612,596030,1116998
1377591,596261,1116843
1377789,596273,1116907
1377712,596738,1117392
1378041,597053,1117834
1377830,597292,1118908
1377801,597439,1120123
1377866,597351,1120131
1377850,596982,1119891
1378080,596644,1120020
1378279,596513,1120216
1377956,596476,1120258
1378044,596387,1120344
1378153,596517,1119426
1378332,596820,1118760
1378247,597194,1118713
1378247,597434,1119280
1378051,597423,1119747
1378025,597208,1120226
1378221,597349,1120099
1378311,597043,1119881
1378323,596710,1119752
1378201,596505,1119779
1378228,596318,1120108
1378374,596372,1120243
1378558,596312,1119923
1378460,596438,1119943
1378574,596395,1120126
1378260,596219,1119683
1378257,596201,1119063
1378288,596123,1119031
1378556,596045,1118327
1378764,595829,1118072
1378704,595833,1117340
1378785,595951,1116530
1378834,596143,1116372
1378619,596281,1116271
1378751,596488,1116504
1378481,596331,1116189
1378481,596093,1116223
1378600,595878,1116518
1378528,595785,1116958
1378555,595671,1117351
1378542,595540,1117630
1378729,595453,1117887
1378614,595478,1118536
1378581,595574,1118519
1378630,595648,1118589
1378840,595581,1118698
1378810,595395,1118100
1378866,595316,1117926
1378730,595117,1117122
1378855,594950,1116659
1378835,594869,1116964
1379310,594724,1116770
1379212,594807,1116303
1379121,594679,1116490
1379090,594841,1116501
1379058,594889,1116395
1378924,594972,1116589
1378948,594984,1116767
1378853,595080,1116952
1378853,595195,1117393
1378907,595234,1117400
1379002,595355,1117280
1379042,595200,1116656
1379058,594932,1115783
1378946,594703,1115035
1378761,594776,1115193
1378789,594672,1115444
1378790,594607,1116131
1378767,594419,1117013
1378730,594245,1117611
1378706,593898,1117686
1378502,593685,1117506
1378504,593702,1116998
1378835,593748,1116851
1379081,593759,1117205
1378894,593529,1117582
1379078,593276,1117133
1378852,593244,1116652
1379024,593237,1116294
1379084,593413,1116285
1378714,593487,1116559
1378647,593388,1116882
1378647,593351,1117498
1378643,593188,1117849
1378827,593198,1118293
1378937,593066,1118192
1378859,592816,1117669
1378901,592717,1116680
1378940,592797,1115912
1378925,593241,1115423
1379129,593442,1115218
1378889,593894,1116118
1379175,593804,1116900
1378867,593632,1116589
1378995,593425,1116015
1379030,593394,1115974
1379230,593353,1115933
1379336,593416,1116302
1379485,593663,1116473
1379367,593673,1116638
1379437,593819,1116701
1379473,593941,1116692
1379647,594243,1116464
1379212,594393,1116399
1379185,594415,1116555
1379185,594427,1116775
1379091,594219,1117310
1379398,594247,1117365
1379150,594184,1116960
1379191,594122,1116825
1379155,594069,1116545
1379375,594086,1115686
1379308,594057,1114160
1379530,593993,1113270
1379461,593839,1112867
1379486,593880,1112293
1379362,593781,1111610
1379346,593979,1111435
1379196,594000,1111471
1379683,594105,1110707
1379809,594461,1110491
1379841,594684,1109364
1379919,594930,1108640
1380030,595059,1108324
1379686,595161,1108597
1379849,595038,1108397
1379673,595022,1108666
1379673,594787,1108904
1379643,594871,1108642
1379655,594752,1108395
1379981,594980,1108220
1379897,594940,1108452
1379973,595169,1108539
1380100,596021,1108616
1380227,596532,1108489
1380186,596974,1108557
1380205,597167,1108364
1380191,597247,1107503
1380456,597043,1106660
1380376,596856,1106425
1380539,596805,1106512
1380492,596643,1106357
1380730,596542,1106161
1381003,596419,1105301
1381058,596239,1104893
1380962,596150,1104470
1380826,595936,1104150
1380857,595688,1104162
1380666,595676,1104161
1380522,595762,1104464
1380522,595602,1105268
1380688,595774,1105801
1380524,595795,1106203
1380522,595929,1106507
1380618,595911,1106993
1380714,595712,1107329
1380600,595617,1107612
1380703,595661,1108092
1380616,595641,1108522
1380905,595848,1109203
1380608,595989,1108607
1380793,595928,1107719
1380479,596176,1106910
1380737,596274,1106408
1380753,596189,1105883
1381124,596160,1105630
1380981,596035,1105545
1381111,595868,1105229
1381148,595983,1104857
1381255,596085,1104264
1381218,596186,1103218
1381022,596135,1102312
1380687,596218,1101886
1380687,596156,1102005
1380907,595978,1102084
1380934,595911,1101911
1381078,595737,1102108
1380970,595466,1102119
1381100,595306,1101749
1380941,595088,1101706
1381069,595075,1101801
1381014,595018,1102121
1381273,595165,1102411
1381103,595136,1103108
1381215,594906,1102927
1381050,594790,1103415
1381266,594652,1103980
1381640,594632,1106353
1381597,594461,1107418
1381408,594497,1107880
1381388,594433,1108017
1381475,594426,1108370
1381358,594547,1108677
1381303,594704,1109257
1381144,594823,1109801
1381144,594825,1110062
1381172,594749,1110342
1381219,594617,1111038
1381062,594366,1111783
1381315,594185,1112262
1381368,594027,1112079
1381460,594129,1111685
1380897,594255,1111598
1381167,593940,1111856
1381238,593820,1112220
1381331,593855,1111711
1381158,593653,1111283
1381016,593422,1111124
1381044,593402,1111288
1381092,593289,1112006
1381464,593230,1112108
1381798,593236,1112523
1381635,593200,1112415
1381647,593152,1112401
1381493,593084,1112327
1381389,592861,1112978
1381468,593080,1113171
1381341,593062,1113879
1381341,593104,1114823
1381190,593070,1115239
1381385,593220,1115906
1381120,593292,1116917
1381372,593133,1117854
1381196,592817,1119041
1381410,592703,1119860
1381248,592641,1121138
1381424,592353,1122271
1381280,592345,1123094
1381528,592152,1123079
1381487,591959,1122752
1381343,591923,1122027
1381458,591781,1121992
1381589,591620,1121711
1382049,591617,1121758
1382045,591575,1121891
1381868,591512,1122103
1381776,591522,1122300
1381806,591411,1122501
1381882,591426,1123066
1381561,591613,1123367
1381310,591575,1123720
1381310,591631,1123910
1381226,591514,1123895
1381426,591627,1124591
1381433,591816,1125115
1381503,591765,1126090
1381494,591479,1126974
1381471,591394,1127065
1381520,591446,1126753
1381536,591414,1125946
1381655,591678,1124660
1381597,591699,1124244
1381479,591787,1123971
1381449,591937,1123969
1381533,592203,1125460
1381539,592319,1126035
1382015,592252,1126582
1381988,592249,1126519
1381845,592091,1125957
1381985,592071,1125160
1381822,592319,1125467
1381886,592307,1126159
1381880,592637,1126606
1381880,592782,1127112
1381596,592974,1127003
1381883,593199,1127191
1381821,593380,1127261
1382058,593702,1127137
1382189,593856,1126880
1382243,594426,1126685
1382430,594855,1126451
1382548,594836,1126766
1382413,594815,1127160
1382510,594651,1127868
1382692,594554,1128794
1382505,594574,1129509
1382461,594721,1130641
1382769,594603,1130422
1382872,594629,1130276
1383154,594724,1129532
1383180,594931,1128795
1383179,595109,1127838
1383023,595336,1127549
1383048,595229,1127411
1382873,595307,1127922
1382879,595281,1127952
1382879,595032,1128207
1382608,594749,1127883
1382942,594382,1127732
1382720,593913,1127595
1382971,593607,1127347
1382805,593184,1126761
1382952,592751,1127816
1382791,592834,1127885
1382814,592858,1127273
1382859,592694,1127088
1382823,592352,1127501
1382924,592023,1127326
1382706,591659,1127626
1382565,591440,1126456
1382717,591289,1125755
1382985,591132,1125550
1383036,590837,1125101
1382884,590374,1125029
1383187,590101,1125212
1382959,589884,1124807
1382989,589547,1124555
1382582,589231,1124132
1382665,588844,1123608
1382543,588437,1123407
1382543,588054,1122835
1382638,588056,1122561
1382625,588243,1122402
1382733,588243,1122441
1382429,588026,1122905
1382391,588136,1123602
1382414,587702,1123620
1382514,587282,1123322
1382475,587299,1123365
1382658,586968,1123853
1382284,586827,1124054
1381931,586587,1124002
1382150,586409,1124192
1382458,586046,1124317
1382574,585806,1124133
1382597,585593,1124120
1382489,585438,1124333
1382539,585384,1124459
1382410,585372,1124461
1382659,585360,1124030
1382095,585407,1123903
1382095,585264,1124177
1382261,585265,1123583
1382215,585277,1123159
1382368,585162,1122671
1382294,585288,1122242
1382295,585197,1122315
1382103,585217,1121955
1382299,585326,1121554
1381997,585530,1121137
1382150,585409,1120238
1381977,585558,1119789
1382226,585453,1119340
1381990,585446,1118763
1381822,585628,1117875
1381778,585633,1117199
1382042,585758,1116721
1382200,585980,1116316
1382268,585977,1116072
1382242,585934,1115523
1382173,585892,1114454
1382114,585868,1114103
1382409,585946,1113705
1381937,586157,1113630
1381937,586256,1113846
1382014,586308,1114405
1381936,586386,1115339
1382070,586384,1116046
1381969,586264,1116460
1381980,585900,1116987
1381971,585936,1117872
1382061,586005,1118274
1382126,586057,1117919
1382157,586049,1117634
1382117,585990,1117892
1382154,585641,1118109
1382136,585471,1118271
1382198,585573,1118932
1382021,585508,1119210
1382431,585492,1119881
1382231,585548,1120213
1382217,585497,1120703
1382033,585517,1121199
1382263,585781,1121607
1382169,585870,1121788
1382068,586165,1121422
1381834,586315,1121115
1381940,586413,1120614
1381940,586667,1120643
1382085,586787,1120481
1382206,586997,1119953
1382157,587039,1119895
1382207,586998,1120006
1382084,587129,1121098
1382255,587283,1121597
1382214,587514,1122210
1382308,587565,1122270
1382127,587827,1123081
1382257,587607,1124413
1382047,587656,1126773
1382378,587680,1127302
1382276,587772,1127860
1382617,587860,1127525
1382607,587736,1127338
1382622,587528,1127436
1382383,587530,1127952
1382387,587528,1128812
1382672,587396,1129712
1382564,587441,1130347
1382323,587453,1130573
1382323,587414,1130096
1382431,587542,1129501
1382535,587807,1129156
1382482,588021,1128672
1382421,587918,1128491
1382647,587780,1128576
1382578,587689,1129198
1382516,587878,1129098
1382455,587805,1128770
1382609,587983,1127868
1382504,587765,1127590
1382493,587469,1126921
1382362,587519,1126236
1382613,587479,1126359
1382694,587344,1126489
1382977,587405,1126864
1383106,587168,1127736
1383020,587062,1128568
1382895,587039,1128373
1382871,586977,1128372
1383021,587096,1128477
1382844,587185,1128590
1382440,587284,1128689
1382440,587196,1129004
1382721,587091,1129859
1382591,587105,1131023
1382619,587107,1132028
1382791,586866,1133486
1382717,586783,1134932
1382821,586841,1135789
1382664,586938,1135844
1382772,586855,1135400
1382646,586932,1134685
1382769,586807,1133602
1382579,586772,1133046
1382609,586692,1133177
1382597,586972,1133675
1382739,587042,1133360
1382995,587337,1133377
1383037,587555,1133347
1382859,587604,1133652
1382747,587666,1133230
1382802,587959,1132824
1382865,588093,1132456
1382714,588281,1132796
1382714,588016,1133603
1382460,587658,1134787
1382631,587470,1136124
1382418,587144,1136428
1382639,587065,1136750
1382564,586685,1137587
1382423,586478,1138652
1382622,586308,1139738
1382620,586241,1140803
1382638,586185,1141881
1382674,586106,1142354
1382687,586015,1141808
1382567,585768,1139949
1382443,585617,1139433
1382447,585443,1138918
1382781,585325,1138308
1382759,585101,1138377
1382987,584890,1138840
1382687,584742,1138878
1382713,584317,1139093
1382743,584034,1138882
1382568,583811,1138559
1382495,583750,1138885
1382495,583492,1139221
1382366,583447,1139443
1382403,583458,1140274
1382523,583410,1141153
1382519,583198,1141729
1382585,583162,1142865
1382330,582805,1143599
1382511,582641,1143723
1382319,582696,1143976
1382353,582470,1144088
1382330,582594,1144265
1382478,582315,1143685
1382416,582176,1142769
1382352,582080,1142586
1382124,581981,1142768
1382525,582010,1143189
1382362,581908,1143798
1382208,581948,1144813
1382180,582027,1145652
1382054,582424,1146140
1381949,582763,1146732
1381913,583148,1147401
1381629,583269,1148881
1381629,583208,1150215
1381788,583069,1150876
1381686,583076,1150719
1381893,583032,1150601
1381712,582985,1150042
1381863,582968,1149730
1381635,583020,1149748
1381936,583295,1149682
1381886,583243,1150167
1381998,583143,1150810
1381759,583060,1151050
1381833,582763,1151487
1381671,582798,1150792
1381966,582730,1150622
1381776,582936,1150032
1382223,583106,1149870
1382085,583341,1150027
1382171,583376,1150041
1381757,583274,1149802
1382009,583138,1149953
1382076,583050,1149888
1381953,583238,1149844
1381953,583143,1150082
1381754,583265,1150586
1381936,583445,1150825
1381837,583625,1151118
1382065,583785,1151765
1382042,583959,1152650
1382130,583881,1153663
1381788,583734,1153975
1381941,583520,1154124
1381903,583124,1153734
1381957,583001,1153045
1381893,582830,1151874
1381957,582718,1151422
1381970,582685,1151594
1382114,582454,1151201
1382251,582303,1151473
1382531,582287,1151443
1382327,582074,1151219
1382700,581929,1151024
1382290,581875,1151333
1382301,581854,1150853
1382281,581747,1150651
1382068,581650,1150400
1382068,581343,1150860
1381998,580972,1151214
1382167,580777,1151551
1382142,580796,1151280
1382221,580730,1151297
1381879,580836,1151354
1382016,580862,1151381
1381957,581107,1151394
1382181,581240,1152097
1382215,581180,1152870
1382133,581201,1153564
1382007,581282,1154884
1381811,581405,1155841
1381937,581649,1156590
1382131,581772,1156702
1382266,581910,1157032
1382209,581789,1156834
1382045,581572,1156960
1381765,581397,1156812
1381889,581196,1156553
1381888,581287,1156294
1381510,581367,1156453
1381465,581520,1156524
1381465,581430,1156569
1381393,581245,1155771
1381693,581154,1155074
1381347,580986,1154402
1381355,580764,1153870
1381037,580720,1153457
1381042,580685,1152783
1381075,580769,1152267
1381077,580780,1151951
1380957,580634,1151788
1380946,580488,1152415
1380761,580437,1152457
1380833,580239,1152867
1380830,580316,1152306
1381325,580438,1152098
1381375,580332,1151963
1381318,579971,1151232
1381350,579736,1150538
1381089,579402,1149798
1381398,579131,1148367
1381201,579045,1146832
1380989,578666,1145683
1380989,578293,1145169
1381112,577880,1145011
1381218,577457,1144413
1381211,577153,1143607
1381252,576925,1143507
1381464,576951,1143711
1381250,577123,1143258
1381377,577201,1142987
1381162,577295,1143252
1381380,577465,1143364
1381190,577490,1143284
1381174,577356,1142327
1381020,577352,1141413
1381209,577402,1140101
1381336,577648,1139411
1381623,577741,1139383
1381378,577920,1139562
1381370,578351,1139997
1381234,578463,1140532
1381276,578774,1140417
1381199,579106,1140604
1381073,579368,1140125
1381073,579326,1139912
1380686,579452,1139335
1380757,579648,1138776
1380855,579909,1138648
1380899,579965,1138612
1380923,579930,1139275
1380923,580027,1139486
1380786,580178,1139382
1380876,580121,1139746
1380831,580212,1140441
1380808,580292,1140123
1380745,580164,1139600
1380630,580069,1139301
1380859,580275,1138829
1380973,580473,1138297
1381341,580711,1138122
1381448,580825,1138140
1381397,580949,1138162
1381408,581071,1137704
1381288,581264,1137502
1381424,581394,1137378
1381234,581452,1137575
1381062,581447,1137602
1381062,581446,1137887
1381308,581521,1138148
1381100,581652,1137479
1381293,581910,1137359
1381225,581858,1137571
1381339,581878,1137445
1381428,582167,1137149
1381433,582372,1136547
1381376,582243,1136290
1381457,582278,1136718
1381590,582225,1136829
1381643,582156,1137106
1381443,582445,1137693
1381597,582788,1137414
1381749,583116,1136699
1382121,583076,1135771
1382031,583120,1135242
1382060,583258,1134916
1381858,583345,1134665
1381724,583483,1134675
1381744,583402,1134640
1381679,583541,1134566
1381679,583375,1134463
1381464,583137,1134385
1381802,582933,1134591
1381811,583182,1134805
1381860,583406,1135436
1381629,583483,1136441
1381891,583796,1136963
1381863,583875,1137734
1381973,584088,1137435
1381764,584298,1136810
1381916,584468,1136136
1381962,584641,1135193
1381875,584720,1134675
1381904,585064,1135264
1382130,585226,1135021
1382412,585378,1135468
1382486,585539,1136244
1382233,585471,1136493
1382340,585351,1136077
1382242,585167,1135442
1382584,585075,1134970
1382308,584917,1134944
1382250,584624,1134298
1382250,584263,1134166
1382235,584134,1133920
1382273,584298,1134337
1382314,584394,1134574
1382394,584323,1134876
1382113,584272,1135062
1382364,584399,1135108
1382331,584513,1135232
1382557,584248,1136192
1382502,584226,1136475
1382347,583855,1136739
1382340,583577,1137598
1382321,583383,1137104
1382129,583421,1136967
1382417,583588,1136893
1382640,583637,1137089
1382804,583605,1137141
1382303,583378,1137046
1382415,583428,1136363
1382314,583292,1136045
1382438,583341,1135867
1382222,583422,1136686
1382222,583666,1137281
1382199,583862,1137594
1382161,584229,1137596
1382191,584417,1137063
1382135,584488,1136321
1382216,584427,1135482
1382029,584278,1134781
1382306,584077,1134083
1382101,584250,1133578
1382152,584269,1133486
1381980,584537,1133405
1382215,584642,1133344
1381895,584638,1133561
1382045,584613,1133833
1381649,584558,1133406
1382141,584252,1132835
1382475,584408,1132184
1382535,584166,1131656
1382301,584067,1131632
1382307,584117,1131513
1382346,584214,1130962
1382413,584265,1131871
1382007,584514,1132855
1382007,584387,1133521
1382079,584447,1134081
1382038,584392,1134476
1382228,584676,1134542
1382211,584557,1134829
1382289,584444,1135277
1382192,584316,1135544
1382263,584368,1136401
1382316,584263,1137561
1382235,584209,1138378
1382159,584063,1138950
1382225,583925,1138959
1381954,583835,1139116
1382068,583652,1138879
1382092,583213,1138010
1382471,583017,1137870
1382475,582724,1138037
1382502,582694,1137805
1382334,582772,1137612
1382423,582846,1137895
1382333,582872,1138320
1382161,582890,1139147
1381851,582735,1139793
1381595,582599,1140248
1381595,582441,1140807
1381689,582228,1141125
1382077,582025,1140597
1382004,581702,1140509
1381917,581340,1140438
1381491,580870,1139564
1381505,580410,1138462
1381541,580173,1138181
1381512,579845,1138654
1381414,579590,1139976
1381181,579167,1140259
1380952,578995,1141431
1381107,578988,1141656
1381190,578968,1142272
1381435,579046,1143216
1381345,579009,1143570
1381303,578829,1143080
1381056,578640,1142277
1381156,578437,1141110
1380909,578483,1140226
1380855,578352,1140230
1380855,578166,1140659
1380636,578085,1141167
1380794,578137,1141155
1380604,578306,1141116
1380826,578499,1140665
1380648,578419,1140513
1380601,578179,1140291
1380313,578201,1139984
1380473,578206,1140411
1380226,578210,1140938
1380412,578461,1141229
1380420,578514,1141594
1380174,578535,1141692
1380143,578678,1141781
1380217,578387,1141884
1380298,578086,1142673
1380430,577919,1143546
1380232,577620,1144567
1380231,577494,1144528
1380172,577767,1143751
1380398,577794,1143006
1380052,578131,1142515
1379885,578233,1142524
1379885,577952,1143131
1379907,577838,1143810
1379959,577682,1144408
1379898,577490,1145289
1379940,577396,1146140
1379994,577326,1146455
1380032,577259,1145741
1379662,577184,1144683
1379620,576881,1144398
1379693,576561,1144374
1379846,576487,1145351
1379558,576320,1145521
1379654,576139,1145540
1379695,576277,1144899
1379871,576225,1144430
1380046,576174,1143935
1379973,576212,1143121
1379784,576009,1142826
1379761,575657,1142887
1379630,575593,1142724
1379613,575305,1143239
1379279,575274,1143888
1379178,575069,1144151
1379178,574924,1144105
1379278,574771,1143530
1379234,574819,1142706
1379302,574741,1142383
1379191,574533,1142261
1379252,574209,1142507
1379123,574126,1142638
1379166,574074,1143366
1379080,574189,1143985
1379037,574282,1144540
1379013,574369,1144076
1378752,574402,1143930
1378702,574302,1144496
1378759,574292,1144955
1378956,574212,1145462
1379160,574037,1145599
1378780,574094,1146165
1378639,573971,1146234
1378782,574125,1145790
1378680,574420,1145392
1378740,574460,1145280
1378588,574257,1145441
1378588,573893,1145384
1378132,573493,1145316
1378297,573256,1145563
1378282,572909,1146077
1378206,572678,1147253
1378202,572608,1147772
1378281,572852,1148211
1377778,573050,1148057
1378072,573255,1148713
1377826,573378,1148979
1378121,573229,1149441
1378011,573177,1150075
1377952,572958,1150934
1377807,573062,1151796
1377824,573007,1152812
1378111,572969,1153134
1378242,572970,1153582
1378033,573067,1153302
1378067,573101,1153354
1377863,573359,1153390
1377628,573336,1153559
1377705,573476,1153827
1377652,573451,1154214
1377652,573245,1153855
1377451,572959,1153590
1377525,573061,1153155
1377370,573252,1153153
1377140,573458,1153422
1377411,573375,1152867
1377417,573187,1152787
1377213,573061,1152917
1377361,572579,1153078
1377272,572474,1153387
1377311,572212,1153433
1377099,571742,1153819
1377093,571496,1153688
1377125,571283,1153824
1377342,571135,1153886
1377229,571034,1153706
1377503,570928,1153938
1377408,570821,1153953
1377462,570799,1154085
1377202,570981,1154022
1377380,571443,1153741
1377322,571760,1153798
1377014,572049,1153742
1377014,572184,1153505
1376840,572228,1153920
1377056,572654,1154659
1377110,572882,1155581
1377070,573164,1156259
1377015,573344,1155601
1377305,573780,1155675
1377072,574064,1155572
1377151,574215,1155001
1377127,574300,1154656
1377289,574519,1153800
1377130,574601,1153864
1377272,575102,1154102
1377092,575516,1155052
1377631,575757,1155494
1377387,575882,1155749
1377638,575991,1155644
1377558,575995,1155650
1377766,576033,1155426
1377652,576237,1155429
1377710,576554,1155025
1377572,576905,1155533
1377572,577080,1155860
1377499,577083,1155451
1377482,577088,1155787
1377682,577299,1156067
1377615,577270,1156365
1377665,577212,1156087
1377758,577422,1156092
1377619,577597,1157004
1377653,577672,1157288
1377771,577458,1157735
1377764,577527,1158847
1377992,577494,1159127
1377727,577680,1159749
1377692,578143,1160551
1377766,578325,1160813
1378162,578638,1160634
1378142,578869,1160910
1378018,579020,1160791
1378038,579169,1160278
1378075,579455,1159906
1377953,579562,1159808
1378075,579718,1160126
1377854,579867,1160482
1377854,579780,1160237
1377943,579876,1160176
1378093,579693,1160202
1378201,579732,1160359
1378080,579671,1160186
1378030,579433,1159982
1377989,579181,1160035
1378235,579265,1160412
1378072,579449,1161027
1378277,579559,1161378
1378138,579784,1160325
1378119,579845,1159940
1377907,579997,1159280
1378118,579727,1159389
1378186,579450,1159942
1378611,579408,1160122
1378480,579188,1160570
1378612,579203,1160969
1378355,579285,1161012
1378437,579431,1160750
1378304,579518,1160467
1378348,579608,1160492
1378348,579734,1160084
1378055,579659,1159779
1378061,579774,1159677
1378232,579771,1159929
1378327,579743,1160479
1378216,579781,1160705
1378001,579940,1161101
1378094,579973,1161320
1378223,580068,1161049
1378156,579938,1160822
1378141,579717,1160497
1378017,579334,1160797
1377932,578901,1160803
1378003,578740,1160981
1378268,578447,1161384
1378326,578380,1161879
1378335,578263,1162317
1378096,578024,1162229
1378065,577808,1162272
1378085,577753,1162394
1378241,577619,1162566
1377994,577656,1162547
1377682,577455,1162440
1377682,577293,1162436
1377652,576874,1162777
1377713,576741,1163068
1377613,576629,1163964
1377656,576519,1164818
1377622,576465,1165259
1377578,576218,1165454
1377385,576369,1165898
1377473,576102,1165336
1377406,576256,1164604
1377348,575941,1164362
1377155,575825,1164745
1377144,575878,1164880
1377025,575688,1165251
1377245,575646,1165661
1377496,575648,1166023
1377346,575637,1165892
1377302,575693,1165802
1377253,575550,1165546
1377188,575462,1165295
1376970,575469,1165105
1376693,575463,1164903
1376693,575420,1164717
1376699,575188,1164523
1376863,574989,1164589
1376955,574827,1164498
1376869,574498,1165000
1376645,574419,1164950
1376651,574345,1164953
1376575,574403,1164864
1376569,574399,1165067
1376659,574278,1165029
1376591,574151,1165767
1376392,574092,1165816
1376349,573988,1165901
1376517,573683,1165582
1376594,573261,1164995
1376779,572997,1164833
1376789,572783,1164661
1376571,572388,1164377
1376377,572076,1164249
1376341,571959,1164330
1376592,571906,1164177
1376333,572035,1164324
1376199,571929,1164117
1376199,571743,1163531
1376155,571485,1162566
1376261,571311,1162169
1376222,571003,1161755
1376292,570704,1161376
1376004,570606,1161403
1376080,570774,1161698
1376015,570833,1162368
1376002,570463,1162615
1375885,570263,1162554
1375903,570055,1162479
1375795,569938,1162773
1375933,570257,1162419
1375884,570550,1162289
1376242,570846,1162334
1376259,571119,1162942
1376195,571138,1163268
1375982,571385,1163764
1376147,571492,1164208
1376093,571655,1164417
1375948,572092,1164301
1375580,572362,1164437
1375580,572399,1164202
1375813,572544,1163862
1375845,572602,1163390
1376010,572706,1163193
1375957,572521,1163086
1376064,572247,1162707
1375747,571768,1162632
1375853,571804,1162584
1375716,571735,1162320
1375948,571984,1161845
1375680,571877,1161054
1375671,571749,1160705
1375421,571844,1160515
1375728,571791,1159858
1375708,571608,1160178
1376148,571389,1160613
1376059,571271,1161039
1376066,571083,1161321
1375836,571076,1161013
1375816,571064,1160642
1375978,571201,1160532
1375593,571210,1160507
1375422,571215,1160287
1375422,571453,1159553
1375646,571397,1159266
1375655,571571,1158895
1375711,571509,1158907
1375580,571379,1159065
1375761,571770,1158463
1375753,571953,1158251
1375749,571957,1158309
1375636,571753,1158500
1375878,571497,1158660
1375556,571295,1158621
1375553,570919,1158976
1375496,570782,1158477
1375820,570907,1158555
1375879,571041,1158414
1376295,571266,1158255
1375906,571544,1158471
1376106,571438,1158827
1375891,571381,1158441
1376089,571427,1157994
1375810,571673,1157909
1375866,571644,1158092
1375866,571656,1157915
1375826,571771,1157767
1375859,571811,1157378
1375717,571805,1156980
1375982,571519,1156996
1375684,571286,1156750
1375870,570757,1156279
1375511,570615,1155750
1375899,570486,1155374
1375911,570585,1155162
1376101,570724,1154958
1376020,570638,1154330
1375946,570591,1154269
1375888,570786,1154137
1376126,570831,1154509
1376331,570924,1154728
1376418,571007,1154733
1376153,570879,1154487
1376121,570922,1154419
1375921,570858,1153694
1376062,570595,1153821
1375853,570548,1154098
1375853,570575,1154510
1375758,570507,1154917
1375687,570402,1155309
1375898,570425,1155518
1375643,570258,1155853
1375637,570200,1156463
1375548,570420,1156552
1375638,570676,1156606
1375591,570730,1156872
1375579,570880,1156989
1375821,570845,1157632
1375708,570860,1158365
1375460,570951,1158271
1375766,570996,1158948
1375753,570919,1159300
1375874,570838,1159653
1376100,570942,1160229
1376236,570982,1160693
1375844,571094,1161184
1375976,571308,1161492
1376159,571515,1162020
1376114,571842,1162860
1376017,571884,1163685
1376017,571717,1164266
1375932,571589,1164296
1376091,571680,1163966
1376120,571617,1163352
1376003,571502,1163358
1376091,571299,1163319
1375960,571423,1162949
1376026,571294,1162495
1376027,571257,1162572
1376216,571096,1162862
1376030,570982,1163464
1375870,570868,1164518
1375653,570992,1164745
1375814,571164,1164768
1376181,571457,1164748
1376372,571677,1164826
1376458,571923,1164799
1376491,572085,1165001
1376029,572288,1165376
1376152,572395,1166072
1376301,572573,1166928
1376359,572632,1167616
1376359,572600,1168074
1376105,572327,1168471
1376228,572313,1168502
1376189,572271,1168406
1376271,572362,1168432
1376206,572393,1169256
1376258,572685,1169481
1376325,572755,1169661
1376339,572755,1169574
1376316,573049,1170149
1376439,573462,1170082
1376470,573673,1170063
1376591,573536,1169388
1376531,573694,1169412
1376576,573583,1169353
1376625,573434,1169219
1376984,573341,1169540
1376863,573259,1169614
1376765,573108,1169883
1376736,573180,1169891
1376967,573217,1169858
1376663,573462,1169887
1376545,573568,1170081
1376545,573651,1170313
1376651,573700,1170572
1376714,574035,1169976
1376882,574229,1169784
1376878,574158,1169234
1376715,573904,1169450
1376862,573927,1169069
1376786,573730,1168634
1376916,573536,1168669
1376937,573524,1169173
1377059,573170,1169649
1377002,573107,1169913
1376825,572858,1169894
1376847,572678,1169766
1376890,572563,1168869
1377436,572525,1168195
1377226,572332,1167573
1377019,572345,1166899
1376956,572407,1166809
1377108,572467,1166805
1377182,572321,1167110
1376911,572345,1167133
1376775,572509,1167027
1376775,572460,1167087
1376724,572507,1166797
1376787,572628,1166329
1376931,572606,1166027
1376834,572529,1166368
1376908,572471,1166523
1376792,572578,1166651
1377031,573035,1166941
1377009,573186,1167810
1377062,573451,1168194
1376953,573517,1168427
1377001,573402,1168734
1376745,573339,1169011
1376851,573441,1169151
1377049,573532,1169279
1377331,573738,1169681
1377418,573911,1170123
1377358,573908,1169985
1377404,573970,1169532
1377461,573889,1169110
1377108,573815,1168867
1377092,573553,1168659
1376895,573363,1169144
1376895,573283,1169171
1377070,573253,1169317
1377078,573341,1169356
1377168,573328,1169715
1376954,573197,1170355
1377183,573010,1170516
1377075,572566,1169765
1377172,572490,1169244
1377170,572580,1169055
1377272,572719,1169302
1377159,572703,1169381
1377094,572544,1168887
1377178,572550,1168898
1377093,572540,1168737
1377510,572485,1168549
1377584,572333,1168536
1377545,572278,1168740
1377421,572099,1168866
1377263,572123,1169279
1377318,572176,1169276
1377083,572253,1169406
1377104,572289,1169034
1377104,572289,1168939
1376970,572160,1169083
1376998,572134,1169026
1376987,571870,1169000
1376974,571713,1169252
1376990,571539,1169336
1376899,571501,1169146
1376774,571696,1168069
1376951,571752,1167504
1376696,572058,1167874
1376936,572322,1168083
1376818,572322,1168494
1376894,572485,1168983
1376824,572763,1168587
1377018,572811,1168015
1377041,572909,1167621
1377554,572857,1167338
1377333,572782,1166996
1377364,572965,1166747
1377279,573042,1166696
1377581,573290,1166720
1377253,573717,1166980
1377322,574106,1167194
1377322,574725,1166905
1377543,575182,1166530
1377666,575885,1165835
1377691,576289,1165551
1377781,576386,1165295
1377693,576252,1165677
1377950,576278,1165941
1377877,576268,1165985
1377957,576205,1166179
1377958,576117,1166506
1377981,575827,1166584
1377691,575460,1165832
1377835,575237,1165537
1377710,575071,1165529
1378072,575094,1165221
1378288,575186,1165424
1378422,575383,1165381
1378196,575471,1165399
1378233,575686,1165888
1378284,575766,1165856
1378310,575531,1165398
1378019,575378,1165281
1378019,575226,1165702
1377922,575109,1165638
1377827,575076,1165938
1378049,575453,1165970
1378303,575663,1166023
1378266,575871,1166276
1377966,576015,1166469
1378208,575762,1166798
1378202,575758,1166836
1378273,575618,1166355
1378206,575745,1166505
1378220,575730,1166944
1378297,575950,1167162
1378492,576127,1166960
1378333,576599,1166854
1378903,576858,1166154
1378876,577048,1165742
1378884,577093,1165150
1378629,576997,1164837
1378644,577053,1164386
1378802,576898,1164479
1378820,577096,1164570
1378401,577171,1164998
1378401,577153,1165481
1378785,577320,1166283
1378828,577153,1166406
1378752,577193,1165993
1378796,576714,1165725
1378798,576381,1165916
1378609,576297,1165676
1378787,576132,1165727
1378747,576190,1165407
1378787,576239,1165121
1378727,576206,1164883
1378699,576168,1164485
1378457,576144,1162860
1378704,576082,1162235
1378561,575956,1161406
1379107,575873,1160802
1378936,575881,1160759
1379032,575747,1160457
1378921,575708,1160247
1379025,575651,1159647
1378928,575828,1159422
1378936,575808,1159179
1378936,575703,1158927
1378787,575497,1158561
1378706,575253,1158638
1378664,575086,1158394
1378828,574922,1157968
1378727,574795,1157403
1378789,574633,1157239
1378714,574818,1157054
1378784,574870,1156395
1378630,574962,1155541
1378754,575015,1155087
1378717,574809,1154725
1378720,574785,1154376
1378886,574848,1154228
1378902,574657,1154337
1378917,574598,1153913
1379000,574389,1153068
1378936,574216,1152954
1379040,574261,1152921
1378869,574282,1153329
1379188,574360,1154168
1378832,574652,1154536
1378718,574716,1154811
1378718,574517,1154805
1378635,574333,1155182
1378820,574055,1155509
1378686,574216,1155459
1378772,573986,1155236
1378661,574044,1154952
1378665,574388,1155760
1378593,574513,1156457
1378513,574494,1157307
1378596,574643,1157986
1378675,574656,1158635
1378481,574600,1159513
1378486,574742,1159732
1378604,574869,1159894
1378611,574797,1159691
1378844,574662,1159291
1378920,574486,1158973
1378977,574547,1158429
1378947,574485,1157677
1378936,574579,1157762
1378798,574603,1157599
1378626,574925,1157558
1378626,574778,1157985
1378576,574775,1158317
1378733,574630,1159058
1378645,574531,1159133
1378599,574718,1158619
1378717,574730,1158629
1378933,575250,1158656
1378845,575596,1158245
1378935,575872,1157572
1378807,576031,1157135
1378994,576173,1156951
1378881,576161,1157121
1378860,576138,1157385
1379059,576194,1157937
1379043,576287,1158524
1379372,576483,1158600
1379430,576572,1158859
1379361,576684,1158983
1379498,576811,1159264
1379350,576912,1159256
1379676,577048,1159253
1379326,577440,1159211
1379291,577742,1158545
1379291,578105,1158465
1379228,578391,1158690
1379425,578756,1158573
1379360,578960,1158198
1379368,578975,1158232
1379187,579010,1157694
1379649,579445,1157959
1379586,579657,1157970
1379710,579740,1157599
1379748,579795,1157475
1379774,579796,1157481
1379537,579677,1157546
1379614,579567,1158427
1379704,579352,1158590
1380073,579133,1159113
1380079,579244,1159022
1380145,579355,1158818
1380027,579620,1158334
1380167,579817,1158397
1380193,580176,1158587
1380257,580697,1158746
1380077,580716,1159013
1380077,580616,1159373
1380118,580703,1159860
1380083,580678,1160303
1380218,580748,1161118
1380194,580563,1161691
1380400,580364,1162234
1380230,580037,1162542
1380273,579934,1163253
1380060,579670,1163280
1380477,579670,1162762
1380237,579761,1162940
1380411,579787,1162981
1380200,579882,1163556
1380486,580120,1163328
1380462,580442,1163767
1380966,580934,1162986
1380832,581065,1162342
1380851,580978,1161618
1380619,580854,1161366
1381037,580883,1161045
1380930,580866,1160933
1380650,580983,1161191
1380448,581087,1161567
1380448,580956,1161968
1380729,580842,1161836
1380555,580786,1161768
1380831,580753,1161525
1380620,580604,1161121
1380568,580600,1160740
1380612,581058,1160862
1380830,581317,1161155
1380678,581647,1160913
1380955,581855,1160872
1380827,582045,1160857
1380723,581954,1160848
1380487,582021,1160606
1380769,581988,1160636
1380913,582009,1160537
1381371,581863,1160580
1381062,581777,1160837
1381113,581626,1161207
1380708,581594,1161382
1381020,581459,1161925
1380877,581351,1162258
1380900,581146,1162563
1380616,581092,1162878
1380616,580988,1162423
1380881,581136,1162162
1380878,581183,1161334
1380978,581056,1160790
1380841,580976,1160367
1380983,580814,1160400
1380965,580624,1160490
1381046,580464,1160735
1381003,580574,1160472
1381002,580325,1160757
1380835,580435,1161137
1380859,580264,1161087
1380793,580487,1160882
1380765,580426,1160904
1380988,580405,1160861
1381020,580353,1160855
1380869,580259,1160926
1381006,580119,1161195
1380891,580268,1161265
1381107,580225,1161464
1380638,580415,1161757
1380667,580540,1162324
1380667,580440,1163420
1380620,580492,1164394
1380743,580519,1165570
1380744,580512,1165921
1380809,580438,1165978
1380758,580202,1166363
1380902,580003,1166701
1380683,580099,1166909
1380858,580268,1167209
1380729,580413,1167276
1380917,580321,1166768
1380790,580239,1166181
1380580,580076,1164778
1380501,580006,1164059
1380940,579986,1164180
1381105,580073,1163868
1381138,580077,1164095
1380996,580052,1164093
1381057,579941,1163787
1381098,579883,1163059
1381099,579794,1162479
1380681,579759,1161803
1380681,579587,1161370
1380558,579521,1161174
1380668,579465,1161329
1380796,579572,1161526
1380612,579541,1161709
1380781,579538,1161386
1380813,579421,1161027
1380802,579725,1160030
1380626,580043,1159083
1380640,580098,1158336
1380473,579995,1158059
1380576,579979,1157982
1380288,579890,1157361
1380385,579715,1156744
1380462,579630,1156736
1380663,579499,1155777
1380743,579584,1155410
1380687,579582,1155102
1380610,579661,1155142
1380819,579586,1155111
1380589,579453,1154867
1380520,579514,1154619
1380424,579486,1154296
1380370,579290,1153828
1380370,578959,1153921
1380463,578938,1153339
1380365,578859,1152889
1380344,578705,1152433
1380437,578768,1152286
1380060,578717,1152013
1380309,578691,1151999
1380295,578480,1151162
1380383,578348,1150868
1380250,577987,1150407
1380237,577696,1149617
1380032,577642,1148882
1380149,577629,1148443
1380309,577672,1148950
1380457,577558,1149137
1380492,577679,1149728
1380502,577611,1150315
1380318,577636,1150831
1380315,577546,1150603
1380338,577702,1150019
1380051,577641,1149258
1380051,577658,1148857
1379808,577827,1148581
1379917,577865,1148806
1379971,577920,1149196
1380131,577994,1149836
1380129,577741,1150357
1379900,577674,1151079
1379990,577576,1151778
1379819,577580,1151655
1380068,577723,1151635
1380083,577896,1151460
1380073,577990,1151323
1379955,577945,1150414
1379971,577918,1150163
1379906,578011,1150346
1380175,577843,1150660
1380243,577990,1151053
1380286,578147,1151366
1380136,578343,1151735
1380114,578476,1152221
1379964,578549,1152402
1380151,578572,1152151
1379928,578478,1152065
1379928,578437,1152382
1380162,578126,1152858
1379998,577955,1152814
1380144,577777,1152374
1379993,577480,1151790
1380073,577262,1151025
1379968,577207,1150550
1380054,577220,1150023
1379855,577024,1149478
1380040,576900,1149253
1379784,576861,1149417
1379754,576607,1149505
1379713,576615,1149429
1379871,576565,1148932
1379932,576497,1149032
1380181,576416,1148684
1379919,576435,1148636
1380141,576526,1148480
1379767,576441,1148966
1379911,576408,1149546
1379655,576491,1149588
1379766,576528,1149429
1379766,576374,1149508
1379574,576350,1149672
1379695,576307,1149527
1379694,576318,1149182
1379931,576341,1149125
1379671,576299,1148993
1379785,576153,1149493
1379383,576485,1149374
1379691,576590,1149268
1379552,576616,1149292
1379684,576548,1149610
1379599,576305,1150027
1379618,576087,1150609
1379587,576191,1150742
1379783,576164,1150742
1379845,576185,1150742
1379975,576253,1151441
1379836,576448,1152156
1380002,576752,1152492
1379894,577090,1152574
1380092,577289,1152138
1379777,577669,1151326
1379699,577970,1151003
1379699,577911,1150520
1379650,578010,1150306
1379740,577834,1149390
1379758,577910,1149162
1379737,577774,1149474
1379588,577814,1149739
1379751,578106,1150345
1379692,578322,1150653
1379872,578126,1150700
1379741,578197,1150933
1379843,578038,1151135
1379746,577687,1150852
1379765,577824,1150662
1379666,577796,1150530
1379988,577968,1151089
1379988,578090,1151550
1380186,578140,1151771
1380102,577999,1152103
1379997,577949,1152186
1380001,577804,1152190
1380091,577774,1151882
1379665,577846,1152033
1379634,577751,1152230
1379634,578058,1152381
1379596,578350,1152644
1379839,578748,1153176
1379795,578991,1153737
1379856,579077,1153818
1379886,579155,1154186
1380016,579025,1154244
1379881,579145,1153908
1380067,579085,1153557
1379987,579313,1153732
1380107,579214,1154448
1380321,579169,1154940
1380118,579030,1155694
1380075,579187,1155806
1380487,579303,1155072
1380488,579276,1154930
1380288,579314,1154978
1380273,579518,1155217
1380486,579698,1155332
1380310,579774,1155525
1380583,580064,1155422
1380188,580137,1155753
1380188,579984,1155943
1380187,580205,1156312
1380027,580284,1156357
1380332,580348,1156230
1380264,580453,1156543
1380305,580437,1157336
1380229,580392,1158401
1380315,580380,1158701
1380271,580142,1159010
1380303,580185,1159251
1380392,580132,1159423
1380320,579927,1159811
1380149,579930,1159353
1380302,580127,1158974
1380390,580207,1158369
1380865,580287,1158296
1380685,580374,1158333
1380845,580337,1158519
1380708,580725,1158762
1380622,580817,1158535
1380631,580955,1157891
1380644,581084,1157618
1380439,581120,1157199
1380439,580972,1157936
1380512,580829,1158448
1380331,580828,1158330
1380613,580989,1157881
1380444,580983,1157287
1380574,581105,1156920
1380565,581319,1156894
1380627,581543,1156138
1380682,581423,1155620
1380676,581629,1155484
1380539,581950,1155086
1380606,581954,1154850
1380498,582235,1153780
1380729,582351,1153431
1380735,582418,1153451
1381153,582358,1153602
1381250,582350,1153534
1381245,582216,1153749
1380959,582133,1153707
1381030,582078,1153444
1381273,582288,1153167
1380871,582357,1153171
1380753,582388,1153275
1380753,582333,1153401
1381030,581946,1153207
1380785,581831,1153027
1380977,581667,1152555
1380786,581310,1152542
1380756,581120,1152715
1380761,580766,1152674
1380686,580849,1151715
1380567,580507,1150941
1380691,580487,1150706
1380711,580388,1150839
1380622,580233,1151511
1380476,580132,1152455
1380536,580104,1152697
1380716,579861,1152558
1380823,579805,1152496
1380552,579630,1152392
1380532,579311,1152288
1380510,579370,1152094
1380425,579257,1152140
1380603,579536,1152397
1380311,579494,1152798
1380311,579501,1153472
1380052,579349,1153749
1380128,579318,1153734
1380117,579161,1153433
1380344,579183,1153266
1380364,578961,1153037
1380268,578840,1153149
1379798,578964,1153044
1379998,579023,1152942
1379941,579381,1152834
1380009,579405,1152970
1379928,579201,1152728
1380011,579002,1152308
1379769,579030,1151970
1379950,579007,1151943
1380255,579128,1151784
1380256,579170,1151447
1380001,579206,1150962
1379993,579123,1150886
1379918,579007,1150895
1379826,578874,1150684
1379748,578774,1150769
1379624,578569,1151038
1379624,578396,1151243
1379749,578088,1151511
1379717,578046,1151335
1379663,577892,1151272
1379702,577713,1151219
1379646,577493,1151138
1379320,577315,1150957
1379329,577380,1150571
1379369,577211,1150619
1379301,577231,1151180
1379307,577175,1151877
1379147,576987,1152173
1379181,576908,1152689
1379274,576760,1152449
1379385,576445,1152355
1379617,576350,1152049
1379584,576325,1152248
1379448,575986,1152489
1379095,575942,1152797
1379292,575957,1153249
1379278,576067,1153536
1379097,576015,1153089
1379097,576105,1152887
1378880,575794,1152100
1378962,575771,1151794
1378921,575696,1151429
1378887,575571,1150878
1378620,575309,1150905
1378730,575173,1151102
1378566,574638,1151187
1378680,574238,1150840
1378549,573255,1150276
1378590,572602,1150327
1378231,572340,1150150
1378377,572009,1149934
1378151,571944,1149091
1378162,571808,1149062
1378263,571382,1149232
1378478,571241,1149186
1378424,571414,1149227
1378280,571531,1149193
1378203,571517,1148938
1378079,571579,1149009
1377923,571703,1149097
1377890,571922,1149488
1377890,571869,1149952
1377862,571907,1150406
1378001,571811,1150771
1377840,571895,1150758
1378001,572016,1150397
1377908,572137,1149766
1377554,572287,1149400
1377603,572111,1148766
1377747,572176,1148215
1377750,572320,1147744
1377755,572485,1147786
1377729,572194,1147866
1377752,572106,1148884
1377494,572116,1148863
1377809,572335,1148447
1377901,572505,1148042
1378123,572578,1147232
1377982,572552,1145870
1377864,572677,1144741
1377536,572671,1144007
1377739,572670,1143969
1377636,572597,1144151
1377703,572507,1144228
1377703,572220,1143483
1377589,571879,1142858
1377805,571741,1142222
1377675,571656,1141927
1377711,571594,1141696
1377682,571539,1142243
1377655,571892,1142919
1377397,572152,1143535
1377706,572103,1144194
1377547,572078,1145464
1377823,571885,1146739
1377471,571679,1147088
1377528,571561,1147072
1377516,571394,1147978
1377596,571334,1148336
1377792,571139,1149200
1377934,571088,1149911
1377805,570850,1150358
1377749,570708,1150467
1377778,570669,1150501
1377757,570718,1150399
1377389,570806,1150418
1377389,570772,1151032
1377410,570607,1151311
1377375,570491,1151672
1377462,570523,1151976
1377417,570422,1152817
1377488,570571,1153163
1377332,570655,1153777
1377440,570607,1153993
1377279,570409,1153000
1377424,570230,1152573
1377370,570059,1152466
1377389,569931,1152596
1377085,569829,1153085
1377262,569932,1153139
1377302,570011,1153883
1377737,570089,1153558
1377612,570103,1153231
1377628,570000,1153130
1377481,569992,1153011
1377544,569880,1153181
1377619,569987,1153313
1377370,570097,1152893
1377012,569879,1152624
1377012,569895,1152488
1377156,569737,1152959
1377093,569832,1153036
1377411,569627,1152692
1377162,569215,1152472
1377235,569011,1151460
1377052,569097,1150828
1377285,569081,1150097
1377152,569037,1149321
1377194,568892,1148824
1377134,568997,1148459
1377045,568858,1148691
1377079,568853,1149085
1377245,568870,1148735
1377428,568941,1148465
1377482,568894,1147440
1377338,568805,1147342
1377342,568721,1147348
1377186,568718,1147661
1377336,568773,1148093
1377279,568960,1148818
1377003,568891,1149185
1377003,568847,1149525
1376962,568842,1150328
1377030,568998,1151326
1377111,569026,1151660
1377034,569048,1151526
1376954,568707,1151642
1376915,568799,1151756
1376800,568878,1152001
1376830,568870,1151887
1376995,569039,1151640
1376972,568989,1151552
1376800,569043,1152102
1376740,569165,1152897
1376916,569355,1154663
1377153,569440,1155014
1377180,569637,1155849
1377229,569721,1155862
1377239,569777,1155885
1377222,569695,1156287
1377051,569785,1156460
1377166,569834,1156709
1376780,569960,1157097
1376780,569963,1157010
1376816,569972,1156827
1376896,570097,1156562
1377060,569994,1156297
1377185,570169,1155831
1377158,570305,1154980
1377167,570618,1154310
1377178,570935,1154449
1377048,571169,1154732
1377149,571413,1154758
1377122,571449,1154889
1377251,571582,1155521
1377169,571582,1156464
1377249,571887,1157227
1377467,572337,1157620
1377651,572535,1156954
1377863,572477,1156954
1377733,572401,1156738
1377652,572286,1156780
1377634,572316,1156950
1377736,572195,1157321
1377599,572470,1157561
1377515,572663,1157627
1377515,572733,1157582
1377516,573089,1157806
1377719,573215,1157950
1377836,573184,1157778
1377740,572905,1157353
1377651,572727,1157059
1377624,572831,1156582
1377746,572814,1156098
1377817,572892,1156048
1377994,572992,1155762
1377915,573135,1155537
1377764,572918,1155897
1377696,572989,1156413
1377946,573168,1156565
1378031,573473,1156787
1378176,573764,1156168
1378309,573828,1155848
1378380,573731,1155596
1378287,573521,1155377
1378157,573540,1155346
1378295,573524,1155480
1377823,573616,1155534
1377823,573620,1154952
1377801,573713,1155056
1377901,573764,1155440
1378129,573929,1155853
1378073,573838,1155726
1377903,573762,1155646
1378105,573634,1155303
1378146,573568,1155457
1377986,573066,1156167
1378207,572792,1157113
1378230,572555,1157420
1377990,572247,1157544
1377951,572090,1158094
1378022,572179,1158135
1377939,572125,1158125
1378438,572424,1158397
1378420,572661,1158034
1378426,572874,1157831
1378299,573182,1157708
1378498,573474,1158012
1378249,573823,1158175
1378167,573983,1158596
1377927,574030,1159026
1377927,574168,1159859
1378182,574078,1160655
1378212,574001,1161137
1378349,573825,1161370
1378266,573631,1160664
1378377,573798,1160710
1378177,574293,1160905
1378280,574375,1160970
1378320,574599,1161618
1378520,574864,1162333
1378328,575195,1162478
1378436,575110,1161827
1378600,575200,1161186
1378523,575075,1160810
1378871,575148,1160631
1379010,575140,1161629
1378630,575066,1161629
1378704,574961,1161987
1378439,574997,1162682
1378794,575059,1162839
1378527,575470,1162790
1378429,575810,1162229
1378429,576146,1161949
1378521,576151,1162012
1378566,576103,1161776
1378493,576000,1161641
1378769,575982,1161998
1378481,575604,1162794
1378782,575419,1163844
1378592,575494,1164888
1378707,575310,1165859
1378735,575233,1167124
1378775,574999,1167632
1378619,574799,1167160
1378553,574669,1166953
1378701,574554,1167155
1378576,574542,1167102
1378959,574228,1167137
1378939,573807,1167105
1378536,573291,1167201
1378605,572871,1167017
1378680,572560,1166740
1378624,572536,1166575
1378272,572371,1166488
1378272,572233,1166045
1378299,572000,1165762
1378217,571859,1165489
